1041527
1262512
221915
221915
292029
221915
221915
221915
221915
221915
292029
221915
292029
1526408
221915
1195079
444860
221915
221915
292029
221915
221915
1262512
221915
292029
221915
221915
2801477
1526408
1262512
292029
221915
221915
1262512
292029
292029
221915
1262512
1239385
221915
221915
1041527
221915
221915
221915
221915
2772090
1195079
221915
221915
221915
221915
292029
221915
221915
1239385
221915
221915
221915
221915
307898
292029
1239385
1239383
221915
292029
221915
292029
760530
221915
221915
221915
221915
221915
221915
221915
221915
292029
1195079
221915
292029
1195077
292029
1262512
221915
292029
221915
292029
221915
221915
221915
221915
292029
221915
292029
1195077
292029
1239385
1195079
1262512
221915
1340810
221915
292029
221915
221915
221915
221915
221915
221915
221915
760530
1262512
221915
1262512
221915
1007127
1007127
221915
2772090
292029
221915
221915
1028375
292029
221915
1586714
221915
221915
221915
292029
221915
221915
221915
221915
2772090
221915
221915
221915
221915
292029
221915
221915
1340810
221915
221915
221915
760530
221915
221915
221915
221915
221915
221915
1526408
1262512
1239385
1239385
221915
1007127
292029
292029
221915
221915
221915
292029
221915
221915
221915
221915
221915
1526408
221915
292029
221915
1239385
221915
292029
221915
221915
221915
292029
221915
221915
292029
1239385
221915
221915
221915
221915
292029
292029
1195079
1239385
221915
221915
221915
1262512
221915
221915
1195077
292029
221915
292029
221915
1028375
221915
221915
1262512
221915
221915
221915
292029
760530
221915
221915
292029
221915
1586714
292029
1262512
292029
221915
292029
221915
292029
221915
307898
221915
292029
221915
221915
221915
292029
307898
221915
221915
292029
221915
221915
1239385
292029
1239385
1239385
221915
1195079
221915
221915
292029
221915
1572703
221915
221915
760530
221915
1262512
221915
221915
1526408
221915
292029
2801477
292029
221915
221915
292029
2070186
221915
760530
292029
1526408
221915
221915
292029
221915
221915
292029
292029
307898
221915
1007127
1883369
221915
221915
221915
221915
221915
221915
221915
221915
292029
221915
1028375
1239385
292029
221915
292029
221915
221915
221915
221915
221915
1450142
1262512
221915
221915
292029
221915
292029
221915
1195079
760530
221915
221915
1195079
1524910
292029
221915
221915
221915
221915
221915
1526408
221915
221915
307898
221915
221915
221915
221915
292029
221915
292029
292029
221915
221915
221915
292029
1007127
1239385
221915
2801477
1262512
221915
221915
1262512
1239385
1262512
221915
221915
221915
307898
221915
2772090
221915
1262512
1007127
292029
221915
221915
221915
221915
292029
307898
292029
1239385
221915
1028375
221915
221915
221915
221915
221915
292029
221915
221915
292029
221915
221915
221915
221915
1526408
221915
221915
221915
221915
221915
221915
221915
221915
292029
221915
221915
1239385
221915
221915
221915
292029
221915
221915
221915
221915
1262512
221915
292029
1007127
221915
1262512
292029
221915
1007127
221915
1526408
221915
221915
221915
221915
221915
307898
221915
221915
221915
1007127
292029
1526408
292029
221915
221915
2772086
221915
221915
1526408
221915
1340810
1239385
221915
221915
221915
221915
1526408
221915
221915
1007127
221915
221915
292029
1041527
221915
1007127
221915
292029
221915
221915
1041527
221915
221915
2772086
221915
2801477
221915
1340810
1524910
307898
1572703
221915
221915
221915
221915
221915
292029
1572703
221915
1526408
221915
1262512
1007127
292029
221915
221915
292029
221915
2801477
221915
221915
1586714
292029
221915
1493509
307898
1493509
292029
221915
1007127
221915
1262512
292029
221915
221915
444860
1239385
2772090
221915
221915
1262512
307898
2801477
221915
221915
1340810
221915
221915
292029
1340810
1586714
2772090
2801477
1340810
1586714
1262512
760530
1586714
1262512
221915
1493509
1262512
1340810
1340810
1524910
760530
221915
1815522
1195079
221915
1340810
1340810
221915
221915
1262512
1557035
1262512
221915
221915
1815522
1815521
754042
1526408
455364
221915
1815522
1340810
221915
221915
2801477
251749
2059380
1815521
1340810
1340810
2801477
1007127
2059380
1340810
1815522
1340810
2801477
292029
1815521
1493509
221915
1340810
1526408
444860
1526408
445685
2772086
221915
1450142
221915
1239385
2801477
292029
1340810
1340810
292029
1883367
292029
292029
1340810
1239385
1340810
555387
1493509
2801477
251749
1493509
251749
2801477
1340810
2801477
1883365
1493511
1340810
251749
2801477
2772090
1340810
292029
1883366
2772090
1340810
1815522
1278479
1493509
1815522
1586714
2801477
1493509
2772086
869724
2801477
1493509
444860
2801477
455364
2801477
1340810
1262512
1340810
1526408
2801477
2801477
1586714
2772090
2801477
1493509
754042
1883369
2023996
1493509
455364
1493511
2023996
251749
2801477
2027899
2059380
2801477
1815522
2801477
1557033
2059380
2801477
2801477
2801477
251749
2772090
2023996
2801477
869724
2801477
445685
238854
2801477
2772090
2023996
2510464
445685
292029
2801477
2023996
536474
444860
1586714
1586714
279383
2268578
2268578
2801477
1007127
2772086
1883369
2023996
2059380
455364
2801477
2801477
2027899
2801477
2801477
238854
2801477
1493509
444860
2801477
445685
2801477
2023996
1815522
1542477
2268578
1493512
1586714
2801477
1278479
1278479
1815522
444860
2801477
444860
1815522
687803
1340810
1883367
444860
2801477
1586714
1883369
1883367
238854
2772090
687803
2801477
1340810
444860
1883369
445685
1557034
2023996
444860
2772086
2268578
444860
555387
1883367
444860
1278479
238854
1493514
1340810
1340810
444860
1340810
455364
2801477
1340810
1340810
1815522
1815522
251749
1883367
1586714
2686279
2023996
2801477
2801477
444860
1493509
1883367
2023996
444860
251749
2801477
2023996
2801477
869724
238854
2100130
444860
238854
2023996
1283077
238854
754042
2023996
2801477
555387
555387
2023996
2686246
444860
1883369
2801477
2801477
1883369
2686251
1883369
444860
2686246
2686246
2801477
2686279
444860
2801477
2023996
2023996
1493509
1883369
1493509
1586713
2686246
238854
455364
1557034
2686279
1586714
444860
2772086
2023996
2801477
2801477
2801477
1586714
2801477
1586714
2686246
2686246
2772090
2023996
2801477
1474867
2027899
2772090
2801477
445685
2686279
2801477
2686246
555387
2686246
1278479
445685
2686246
444878
1586714
1883367
238854
1815522
445685
2801477
555387
2686246
444860
2801477
2023996
444860
2023996
753085
1883367
2686246
2801477
2801477
1557034
444860
2686246
2801477
2023996
444860
2801477
2801477
2686246
2801477
754042
221915
2023996
755272
2686279
754042
2686246
2686246
455364
753085
2801477
2686246
2268578
1815522
455364
2686246
2686279
2023996
444860
444860
2801477
1815521
1586714
2801477
2023996
2801477
2023996
444860
2801477
2023996
2801477
869724
444860
444860
444860
869724
2801477
2743781
754042
2801477
555387
2027899
754042
2686246
1586714
444860
2801477
2686279
1883365
2801477
2801477
444860
2686246
445700
2686246
2801477
2027899
444860
2686279
455364
2801477
455364
455364
455364
2801477
268746
2801477
2686246
2023996
444860
455364
455364
1283077
1883369
455364
2801477
455364
455364
455364
1586714
1815522
2801477
455364
455364
455364
555387
444860
2268578
2023996
251749
2023996
2801477
1586714
536453
2023996
2023996
2027899
2686246
238854
2801477
2801477
2801477
2686251
2801477
2686279
444860
2801477
444860
2801477
2801477
2801477
444860
2801477
444860
444860
2686246
2023996
2023996
1883369
251749
555387
2801477
2027899
2686246
2686246
1815522
2023996
238854
2686246
2023996
2686246
1586714
2023996
2801477
444860
754042
2686246
2686251
2023996
1883369
444860
1815522
2801477
2801477
1283077
268746
1493511
2510464
1883369
2686279
2510464
444860
2510464
444860
2686246
2686246
444860
2686246
2801477
2023996
2268578
2686246
1340810
2686246
2027899
2801477
444860
2801477
444860
2801477
444860
2023996
2801477
251749
555387
2023996
2686246
2801477
2510464
2801477
455364
1586714
1883369
2801477
2686246
445686
1586715
444860
2686246
1815522
2801477
444860
1557033
753085
1883369
2023996
2268578
444860
444860
2801477
1283077
444860
444860
2801477
2801477
238854
1557034
1883369
2801477
1883369
2801477
753085
444860
1283077
1474867
2686246
1883369
1283077
2801477
2801477
1883369
2801477
2686246
2686246
2801477
444860
444860
2023996
2023996
444860
2686279
2023996
2686246
444860
2268578
238854
1327971
2023996
2268578
2686246
2686246
2686246
754042
251749
1883367
444860
2023996
2686246
2801477
444860
2686246
444860
2023996
2023996
2686246
2801477
754042
2023996
2023996
2023996
2686246
1815521
754042
2801477
2686246
1557034
2801477
1283077
2268578
2801477
2801477
754042
1493511
1493511
238854
1586714
2686246
2023996
2686246
2023996
2686246
2023996
238854
444860
2801477
754038
1883369
2023996
2268578
2686246
2510464
2686246
2023996
2801477
2023996
2059380
2686246
555387
455364
754042
2023996
455364
251749
2686246
2801477
2023996
221915
2023996
444860
2801477
2686246
444860
2023996
444860
2686246
2023996
444860
2686246
2268578
754042
2686246
2023996
754041
2686246
2801477
1283077
869724
2023996
2686246
455364
1586714
869724
869724
2686246
869724
2801477
444860
445685
2301529
889953
2801477
2023996
869724
2772090
2686279
1137745
2801477
444860
1147042
869724
2686246
455364
869724
2268578
869724
2023996
2023996
1557034
2801477
2801477
2801477
2023996
2686246
2686246
1283077
2686246
2801477
2801477
2023996
1283077
238854
2023996
2023996
2801477
2686246
1542477
2801477
2801477
2801477
455364
2023996
238854
2686246
2801477
2801477
238854
2023996
555387
2686246
1493511
444860
754042
754042
444860
2801477
2686246
2801477
2801477
444860
1589733
444860
444860
2686246
2686246
2801477
2801477
1278479
1883369
2023996
2686246
2686246
242527
2686246
889953
2023996
2023996
444860
2027899
2686246
444860
1493511
1883369
2686246
444860
2686246
444860
2772080
2686246
2686246
2686246
445686
1883369
2686246
2801477
2100130
444860
2686246
2099637
2686246
2801477
2023996
2801477
2686246
2686246
1815522
754042
1278479
2801477
2686246
1586714
444860
1883369
238854
444860
2268578
2686246
444860
2023996
2801477
444860
2023996
444860
2801477
2686246
2686246
1493509
444860
2686246
455364
2686246
445688
2801477
754042
238854
536474
444860
2686246
2686246
2099637
445688
2023996
2686246
2023996
2801477
2801477
1815522
1883369
1815522
2801477
2686246
2686246
2772090
1883369
2023996
2023996
2686279
2023996
445684
2686246
2686279
2801477
754042
1526408
754042
2023996
2023996
2801477
2801477
2686246
2801477
2686246
2801477
322019
2801477
2686246
2772086
2023996
1340810
2801477
2023996
2801477
2686246
2686246
444860
2027899
2686246
1493512
2686246
2686246
444860
444860
268746
444860
2801477
2686246
2686246
1883369
880159
444860
536444
2100130
445686
2023996
444860
444860
2023996
2301529
2100130
1493511
2023996
444860
1589733
2686246
2023996
2686246
444860
754042
754042
2801477
444860
2801477
251749
444860
444860
1883369
2023996
251749
2023996
2801477
444860
444860
889953
2686246
889956
1883369
444860
251749
754042
455364
445686
444860
1883369
444860
444860
1883369
444860
2023996
2686246
2686246
2686246
1283077
1815522
2023996
753085
2686279
2686246
2023996
1542477
756276
1586713
2801477
294631
444860
1542477
2801477
444860
2023996
2801477
1883366
2686246
268746
444860
2801477
2023996
2686246
2801477
2686246
1474867
2686246
2686246
889953
1883369
2023996
2027899
2023996
1815522
445686
444860
444860
1883369
444860
1033977
2268578
444860
2686246
2686246
268746
2772086
2686246
455364
238854
2023996
2268578
880159
444860
444860
2023996
455364
2686246
1283077
444860
1883369
2801477
444860
444860
2801477
2023996
2801477
1542477
455364
2686246
2801477
2801477
869724
754042
444860
2023996
2801477
889953
2686246
444860
1283077
2801477
2686246
2023996
869662
2023996
445686
1229753
753084
2801477
2268578
2686246
2801477
1536592
1586713
1586714
2801477
754042
889953
2301529
2801477
2023996
2686246
444860
2023996
2801477
2023996
2801477
2686246
2801477
1883369
1883369
2686246
2801477
2801477
2023996
1283077
2686246
753085
2023996
687803
2686246
444860
2023996
2686246
2801477
2686279
1557034
2686246
2023996
2686246
2686246
2023996
2023996
2023996
2686246
2023996
2686246
444878
444860
2801477
2801477
2686279
754042
1586715
444860
1493511
2686246
238854
1586715
1883369
1883369
2686251
444860
2686251
696472
2801477
2023996
2686251
2023996
238854
2686246
2023996
2686246
2686246
444860
444860
1557034
1883369
1883369
1493511
2686246
444860
1493511
444860
909297
1883367
268746
382359
444860
1542477
1586714
1278485
2686246
2023996
1586715
1493511
268746
444860
2801477
1883369
2023996
2023996
2801477
1589733
2023996
444860
696472
753085
1883369
444860
444860
555387
2023996
2686246
2023996
1589733
2801477
444860
444860
455364
444860
2801477
2801477
251749
1493509
2023996
2801477
1493509
2686245
444860
2801477
2686245
2686246
2801477
2801477
444860
2023996
2686246
1283077
455364
1883369
2686246
2023996
1283077
444860
2686246
444860
908819
1542477
444860
444860
2801477
444860
444860
444860
455364
2686246
2686246
238854
2023996
2023996
1883369
251749
444860
2686246
2686246
1557033
2023996
2023996
2686246
2686279
1983572
444860
2023996
2686246
2686246
444860
215158
2686246
2801477
444860
754042
445688
2801477
2686246
444860
2686246
444860
2801477
444860
2023996
2801477
2686246
754042
444860
444860
2686247
2027899
2686279
2801477
2801477
444860
1340810
2023996
2686246
444860
444860
2027899
2023996
1557033
2801477
382359
2268578
754042
2686246
754042
2801477
444860
753085
444860
444860
444860
2268578
2686246
444860
2023996
2686246
1883369
444860
2686246
444860
2023996
2801477
2801477
2023996
445684
2301529
268746
869662
2801477
2686246
2740802
2686246
948071
2686246
2268578
1536592
889953
1283077
1229753
2686279
2801477
2801477
546805
2801477
869662
2801477
2023996
444860
1278402
2023996
2801477
251749
2686246
2023996
444860
2686246
444860
2100130
2023996
2268578
754042
2686246
2023996
1883369
238854
2023996
2023996
444860
455364
444860
2268578
1883369
2686246
2686246
1557034
2686246
889953
2686246
2023996
2268578
2023996
382359
754042
2686246
2023996
444860
2023996
2686246
2686246
2268578
1883369
2023996
2686246
268746
2772086
1340810
2686246
238854
2686246
444860
2023996
2023996
444860
444860
2686246
2268578
2023996
2686246
753085
1883369
2023996
1883369
2801477
268746
2023996
754041
2740801
251749
2023996
445686
444860
869724
2686246
1883369
1557034
444860
2801477
1278479
444860
1449437
2023996
2023996
2023996
1542477
2686246
444860
2268578
2023996
2686246
754041
2801477
1815522
2023996
2023996
2686246
2686246
1283077
2801477
2686246
444860
1278479
2686246
444860
268746
536466
2023996
1883369
444860
2801477
2686251
444860
1883369
2023996
754037
444860
754042
2686246
444860
1557033
2100130
2686246
2023996
2023996
268746
754042
2801477
2801477
444860
2023996
1815521
2023996
2801477
444860
2268578
444860
754042
444860
444860
1883369
1493512
2686279
2801477
444860
2686246
445686
2801477
2686246
1493511
444860
444860
445686
444860
2023996
444860
2023996
444860
2023996
2772090
1883369
754042
2268578
1557035
444860
869724
869662
2686245
2801477
754042
2023996
2686246
2023996
444860
445686
2801477
2268578
1586715
889953
444860
754059
2686246
2023996
444860
2801477
909297
2801477
2686246
444860
1883369
444860
444860
1586713
754059
444860
1589733
2023996
2268578
2023996
444860
136084
2023996
136084
444860
444860
754042
1883369
2023996
1883369
1883369
2686246
1586715
2801477
2740801
238854
444860
948071
2801477
754059
908819
889956
444860
2801477
889953
1079999
2023996
2510464
2023996
2268578
2801477
1586714
1493514
1883369
2801477
2686246
2023996
444860
2023996
251749
2686246
444860
2801477
2686246
2801477
1542477
444860
2268578
2023996
2686246
2686246
2686246
2686246
889953
2686246
754042
2686246
2801477
2268578
2686246
2801477
2686279
2268578
1542477
753085
555387
221915
2686246
444859
2023996
869724
2023996
444860
2023996
2801477
1589733
444860
1983572
455364
2801477
1589733
2023996
444860
2023996
754042
2023996
136084
2686246
2686246
2686246
754042
2686246
444860
2801477
2801477
294631
444860
1883365
455364
2801477
2686246
1586715
1340810
2801477
2686246
1883369
2686246
2545435
2686246
889953
1493509
756275
268746
2686246
2686246
2686246
1883369
2268578
1586714
2801477
889953
444860
2023996
2686246
444860
268746
1883369
2023996
444860
2023996
2023996
2268578
2023996
2686246
2268578
1557034
2023996
2801477
2268578
444860
444860
2801477
2023996
2023996
1283077
2801477
2023996
754042
2801477
889953
2801477
2023996
2686246
444860
2023996
1815522
754042
2686246
1883369
445688
2686246
2023996
2686246
2023996
2801477
444860
2686273
2686246
2801477
2023996
444860
2686279
2023996
2023996
1436889
754042
2801477
754042
2023996
2100130
1586714
136084
889953
687803
2268578
1586715
444860
2686279
444860
2023996
268746
2686246
444860
136084
2801477
445688
1542477
268746
754042
444860
2801477
1283077
2686246
2686246
2686246
2023996
536474
754042
2686246
2686246
2023996
444860
444860
2801477
2686246
268746
2023996
444860
2801477
1493511
294631
2268578
2801477
1542477
754041
444860
444860
238854
444860
1883368
444860
2686246
251749
2686247
1542477
2686246
753085
2801477
444860
2686246
1542477
2023996
754042
444860
1557035
444860
2686246
2801477
2801477
2686246
2023996
2801477
2686246
2023996
2027899
2023996
444860
2686246
2023996
2686246
2686246
444860
444860
2100130
889953
444860
2282904
2686246
754041
444860
2801477
1493511
2801477
1883368
444860
2801477
2686246
2023996
2686246
2023996
444860
2100130
444860
2023996
2268578
444860
1883369
754042
2023996
2023996
444860
444860
2801477
2268578
1493511
444860
2023996
444860
445686
444860
2510464
1493511
444860
2713256
2023996
1283077
444860
268746
2023996
1883366
2686246
1283077
2686247
444860
444860
1883369
754042
754042
221915
2023996
1883369
251749
444860
754042
2510464
2301529
1589733
2023996
2023996
754059
444860
2686246
2686246
2023996
2686246
2023996
693272
1883369
455364
2801477
754042
2023996
444860
1283077
444860
444860
444860
444860
2801477
268746
1493509
2801477
444860
444860
1033977
2801477
444860
2023996
2023996
1542477
2023996
2023996
1033977
335797
1586714
2268578
2801477
444860
2801477
2023996
2023996
444860
889953
1278402
2023996
2268578
2023996
2023996
2023996
2801477
2801477
2023996
2023996
2686273
2023996
2023996
2023996
2801477
2268578
444860
2023996
2801477
444860
2268578
268746
2801477
1589733
2023996
1493511
2023996
2686246
2801477
1391659
2023996
2686246
2268578
2023996
2801477
1589733
444860
2801477
2686246
1589733
2686246
1815521
251749
1589733
2686246
2023996
2268578
754059
2686279
1589733
444860
444860
2686273
444860
754037
2801477
455364
2801477
2801477
2686246
753085
2023996
444860
444860
2023996
444860
444860
2686273
444860
455364
2268578
1883369
2686246
754042
1883369
444860
2023996
2510464
2801477
2686246
444860
2023996
2801477
1883369
444860
2686246
2023996
1332145
754042
268746
2686246
444860
753085
2510464
2023996
1883369
444860
2023996
2023996
444860
2686245
444860
2801477
444860
2023996
2268578
889953
2023996
2023996
444860
444860
2686246
2686246
2686246
889953
1586714
2686246
754042
754042
444860
2023996
2686246
1586715
1493514
2801477
268746
1586713
1883369
1493509
1542477
1586715
754042
251749
2801477
2686247
2686246
1589733
1557033
2686246
754042
2268578
444860
268746
221915
1557033
1557033
1493509
294631
2686246
444860
444860
2686247
2023996
1586714
2801477
1586714
2545435
444860
444860
455364
2023996
2801477
2686246
1493511
2686246
1327983
1278402
2686246
2686246
2686246
2268578
2801477
2686246
2801477
2023996
2027899
1493511
2686246
2023996
2023996
445688
1283076
455364
2686246
444860
1542477
2801477
754042
2686246
1340810
2023996
444860
444860
2023996
444860
445688
1493511
2023996
205869
2023996
444860
1586715
444860
444860
2801477
1883369
444860
754042
2027899
455364
2686246
444860
2027899
2801477
444860
754042
444860
444860
1883369
444860
2686273
2268578
2686246
444860
2686246
1573458
889953
754042
2801477
754039
1573458
984175
2182403
2023996
2801477
444860
889953
2801477
889953
444860
754042
1815521
889953
754042
754059
754039
2023996
2023996
1493511
2023996
754037
2686246
754042
2686246
444860
2023996
754042
444860
455364
2801477
444860
136084
444860
2023996
1493511
546805
444860
1283077
1327982
2023996
136084
1332145
2740801
2023996
889953
444860
136084
2023996
2023996
889953
1883369
136084
948071
1283077
2801477
2801477
2023996
2686246
2801477
1493511
294631
2740801
2801477
444860
251749
444860
2268578
2023996
754042
444860
2801477
2686246
2023996
2268578
2686246
948071
908819
1283077
2023996
444860
1332145
238854
754042
1332145
2686246
2801477
889953
444860
2100130
2268578
889953
2801477
455364
2801477
1883369
2023996
2023996
889953
754042
2686246
2686246
445688
2023996
2023996
1340810
444860
2023996
2023996
2801477
444860
2023996
444860
251749
889953
444860
455364
1557034
2023996
2023996
948071
889953
1586715
2801477
2686246
2023996
2023996
2268578
1283077
2023996
754042
444860
444860
444860
2023996
2023996
455364
2100130
444860
2743781
2801477
455364
455364
444860
1883369
1474867
1586714
444860
2023996
889956
754042
444859
1557033
754042
238854
444860
754042
2801477
754042
2801477
2268578
1273711
444860
1573458
2801477
2801477
1278479
455364
889956
2023996
2801477
2023996
2023996
2023996
2686251
948071
1493511
1883366
2801477
754041
2743781
2686251
2686246
444860
2801477
948071
2801477
136084
444860
754042
2686246
2027899
2801477
444860
1586715
1391659
1283077
687803
251749
2686246
2686246
444860
444860
382359
1586714
2023996
2027899
2023996
444860
2023996
889953
2023996
1883369
2686246
444860
2801477
444860
754042
444860
382359
444860
251749
444860
2801477
445688
2023996
754059
2686246
2023996
238854
2801477
238854
2686246
2686246
445686
2027899
444860
444860
2686246
444860
444860
2023996
1883369
268746
1586714
2686246
2023996
2743781
444860
1278479
2801477
2023996
444860
2801477
2801477
2268578
444860
754042
268746
754042
444860
1557033
1283077
444860
2023996
444860
754042
1883369
1278479
444860
1557033
2801477
1283077
294631
2801477
2801477
268746
1883369
1883368
444860
2023996
2023996
444860
2686246
754042
2023996
1536592
2023996
1283077
444860
1278479
2801477
444860
268746
2041493
754042
2686246
445686
754042
2023996
2801477
1883369
908819
238854
2023996
2023996
1586715
444860
444860
444860
2023996
908819
2686247
2023996
2027899
268746
444860
2023996
2686246
1493511
444860
2510464
2023996
444860
2023996
444860
2801477
2023996
444860
2027899
2023996
2023996
2027899
754042
948071
2686246
2023996
444860
754042
2686246
2801477
444860
2801477
2801477
2686246
444860
444860
2801477
444860
444860
2023996
444860
2801477
294631
444860
754042
444860
238854
444860
2023996
2023996
536453
2801477
444860
444860
1883369
444860
754042
444860
2801477
2023996
444860
2686246
889953
444860
444860
2743781
687803
948071
948071
889953
2801477
1327971
2023996
2023996
1883369
1536592
1283076
2268578
754042
2268578
1883369
2686246
2740801
2023996
1883369
444860
268746
444860
1197951
1883369
1283077
2510464
444860
444860
2023996
2686246
2023996
1883369
687803
2023996
2686279
444860
2686273
444860
444860
2686246
2740801
268746
444860
444860
444860
2686246
754042
1542477
2801477
1883368
908819
2027899
444860
444860
908819
2027899
444860
444860
908819
2099637
2023996
2023996
455364
2801477
444860
1332145
444860
2686246
444860
2268578
221915
444860
444860
2801477
455364
444860
948071
2023996
2686246
2801477
1335230
2686246
445688
2023996
2023996
444860
2801477
444860
2023996
2023996
2801477
1283077
268746
1283076
2023996
444860
268746
889953
2510464
2023996
268746
1474867
2801477
2023996
268746
444860
2023996
2023996
2023996
1493509
948071
2023996
2023996
444860
238854
1197951
1586714
2801477
2686246
754042
2023996
444860
1493511
444860
2686246
760530
2023996
889951
444860
2023996
294631
2023996
444860
2023996
2686246
2023996
2801477
2023996
2686279
754042
754042
2740801
2023996
444860
2686273
1332145
753084
2740801
2023996
444860
294631
444860
2027899
444860
2801477
2686246
444860
2023996
2023996
2023996
1283077
2801477
2686246
445686
753085
2716351
382359
268746
1327982
2027899
754042
1557035
1283077
2027899
869724
444860
2023996
444860
2023996
2023996
2027899
2268578
2801477
754042
444860
2023996
444860
268746
1283078
1883369
1983572
1283077
2801477
444860
445683
2027899
1542477
908819
2510464
1814287
2023996
445686
444860
2023996
1542477
2023996
754042
444860
1536592
1493511
2023996
2686246
444860
2100130
2686246
444860
438482
1542477
2268578
445686
2268578
444860
1493511
2801477
97195
438482
1542477
2801477
238854
1586713
444860
1033977
2686251
2801477
444860
908819
444860
438482
756275
948071
2027899
2023996
438482
444860
438482
35241
438482
2686246
2801477
1883368
438482
754042
444860
754059
1493511
1283077
1536592
2268578
438482
2801477
444860
438482
1283077
444860
2801477
1586715
238854
238854
2686246
1335230
2023996
2801477
444860
2023996
2023996
2801477
1883369
1542477
251749
444860
444860
2023996
2801477
444860
268746
444860
444860
444860
1586713
1283076
1586715
444860
444860
1586715
251749
444860
2023996
444860
2027899
455364
268746
444860
2023996
444860
444860
347327
2023996
1883369
2027899
444860
2301529
251749
2686246
2023996
444860
2686251
444860
268746
444860
444860
2023996
2023996
2023996
889953
1814287
2023996
1283077
546805
889953
2801477
444860
455364
2023996
444860
1493511
444860
2023996
889953
268746
2027899
2023996
444860
2301529
2023996
2268578
444860
444860
889953
756275
444860
2801477
279280
2023996
444860
2023996
948071
2268578
2023996
2801477
2268578
754042
294631
2801477
2686246
754042
444860
2686246
754042
444860
754042
1283077
294631
2686246
444860
2801477
2023996
889956
2268578
2772086
2023996
2023996
444860
1278479
2686251
444860
1883368
2686273
382359
948071
948071
444860
2801477
1883368
948071
2023996
2023996
1195073
2023996
1883366
2023996
889953
2023996
2686251
1536592
455364
444860
294631
2268578
444860
268746
948071
444860
2023996
2743781
2027899
2023996
2801477
889951
889951
2801477
2023996
444860
754059
444860
760530
1283077
2023996
2023996
2743781
2268578
444860
444860
2686273
889953
444860
2686246
2686246
2801477
2801477
889953
238854
889953
2743781
2743781
2801477
889951
2743781
444860
754042
2743781
444860
444860
444860
2268578
444860
555387
2686251
445686
444860
2023996
2023996
444860
445686
444860
2686251
444860
2686246
2023996
444860
2023996
444860
693272
2801477
444878
2023996
444860
693272
444860
2801477
1542477
754042
889953
1542477
2212563
2686246
444860
2801477
1542477
1883369
2079134
444860
444860
2801477
2023996
2023996
536466
444860
754042
455364
268746
444860
455364
2801477
1536592
754042
455364
444860
889953
1542477
2268578
444860
2801477
2801477
251749
2686251
1493512
444860
889953
2099637
444860
754042
2686246
2801477
2801477
238854
444860
444860
2023996
546805
1033977
754042
1589733
2023996
2023996
2023996
444860
444860
929835
2741072
2686251
2027899
2027899
2023996
2023996
2801477
1493512
444860
2023996
444860
2686246
2686246
2686246
268746
444860
754042
2023996
2023996
2023996
251749
1283077
1883369
2686251
754042
754059
444860
444860
2023996
2023996
444860
2041493
2023996
2023996
2801477
2023996
2801477
1557033
268746
444860
1815522
551790
444860
455364
444860
2268578
2686246
2801477
2023996
444860
2740801
169683
754042
754059
908819
1332145
268746
1283076
1883369
2686246
1048189
908819
753085
444860
2023996
908819
2023996
756275
2268578
2801477
754059
444860
268746
444860
455364
2023996
444860
1332145
2023996
1283076
444860
2801477
444860
2023996
2801477
2268578
908819
908819
1392231
616674
1332145
2801477
1283077
2801477
2686246
1814287
1542477
2268578
1557033
445685
2801477
1278479
1814287
238854
1278479
908819
444860
2801477
444860
760530
1542477
2686246
889953
444860
444860
238854
444860
444860
2510464
1542477
1542477
2268578
908819
294631
2686246
1883369
2027899
1332145
2686246
2686246
294631
444860
2268578
1883369
889953
455364
1283077
2023996
2023996
889953
2023996
2268578
2801477
444860
754042
2027899
444860
2023996
2801477
2023996
444860
693272
2023996
444860
444860
2023996
2801477
2023996
444860
2801477
444860
2801477
444860
444860
2801477
2023996
2268578
251749
2491321
1883369
2801477
455364
2801477
2023996
251749
445686
2801477
2023996
2686246
756277
2801477
2023996
2686246
1883368
444860
754059
2268578
754042
948071
444860
1283077
948071
1332145
444860
294631
1883369
444860
444860
889953
251749
2268578
2023996
2801477
1883369
1327983
869724
2686247
1883369
2268578
444860
2801477
444860
754042
2801477
2282904
1391659
889953
2023996
2686279
908819
754042
2801477
1542477
2023996
1195073
2023996
445684
948071
2801477
2686251
444860
869724
2023996
445686
2268578
244310
2686251
444860
1335230
2801477
2686246
1542477
444860
2801477
445686
2686251
251749
1542477
2801477
169683
869724
444860
444860
908819
2099637
869724
948071
2686251
754059
444860
948071
268746
869724
251749
2023996
948071
908819
948071
1542477
1883366
2740801
889953
445688
1332145
2268578
869724
756275
294631
2801477
2801477
2023996
1332145
687803
754042
2801477
754042
2801477
754042
2023996
908819
444860
2027899
445686
444860
2686246
908819
1883369
268746
908819
444860
251749
754042
2801477
869724
2686246
2686246
2801477
2023996
455364
444860
2023996
756275
444860
2023996
2100130
444860
1283077
2510464
1883369
2268578
2023996
445686
753085
1335230
2686246
889953
444860
455364
2686246
2023996
2686246
444862
2023996
444860
268746
2023996
2023996
1392231
2023996
1283077
2023996
444860
869724
2023996
908819
1814287
2686246
294631
2686251
444860
2099637
268746
2801477
444860
1586715
2268578
1586715
268746
1883365
444860
445686
555387
268746
445686
1586714
2686251
2686246
756275
2023996
2268578
2023996
2686246
2268578
2023996
2027899
948071
908819
2023996
754042
754042
2268578
2510464
2023996
754042
294631
2268578
908819
444860
2801477
2801477
2023996
2686246
908819
2099637
444860
2023996
753084
1814287
1493511
1129146
889951
2686246
2023996
444860
2801477
444860
1883369
2023996
948071
35241
754042
444860
2023996
2772080
444860
1536592
1079998
1542477
1586713
2023996
444860
2023996
1493511
444860
444860
2686246
444860
444860
444860
444860
2023996
2023996
455364
889953
754042
2023996
444860
889953
2801477
889953
2686246
444860
444860
2801477
2686246
444860
2023996
444860
444860
1283077
1283077
444860
889953
444860
754059
294631
444860
948071
445688
2686246
444860
2686246
948071
455364
1883369
2686251
444860
1883368
444860
2023996
2023996
169683
908819
2801477
889953
760530
169683
908819
2023996
2686246
2268578
760530
2023996
1493511
455364
444860
444860
444860
754038
2801477
2686246
2801477
2023996
2741076
1557033
2023996
444860
444860
1883369
294631
2268578
2023996
2686273
2023996
335797
2268578
1586715
444860
687803
2686246
1493511
1340810
687803
444860
2686246
2023996
294631
2686246
2268578
2023996
2801477
889953
238854
444860
444860
2023996
335797
2801477
455364
1335230
431892
2801477
444860
2801477
2268578
1283077
2686246
444860
431892
1542477
1542477
2023996
2686246
2268578
2686251
2686246
756275
444860
1814287
444860
1340810
444860
2023996
754042
754064
238854
889953
294631
2801477
444860
444860
687803
2301529
2023996
869724
754042
268746
1883369
444860
268746
444860
444860
2801477
2772080
444860
444860
238854
1493511
444860
444860
444860
2023996
455364
2268578
2801477
444860
294631
2772080
1283077
2510464
2023996
754042
268746
889953
908819
2070026
445686
2023996
2023996
2041493
444860
444860
869724
444860
2510464
444860
2023996
444860
444860
238854
444860
2023996
444860
2772080
2023996
455364
2023996
2023996
444860
2023996
2801477
2801477
753085
2268578
444860
268746
2801477
2740801
2801477
2545435
444860
2023996
444860
948071
2801477
455364
268746
444860
2801477
444860
2801477
1883369
754042
1283077
2801477
251749
444860
2801477
753085
2801477
754042
869662
889953
1542477
754042
444860
1340810
2686251
2801477
2743781
1586715
444860
754042
2545435
1586715
1493510
2545435
2023996
2023996
2023996
2023996
238854
754042
754042
1340810
2023996
444860
444860
1542477
2510464
238854
754059
444860
2023996
754042
889953
444860
1283077
753085
1536592
1283076
2686246
2023996
2023996
754042
444860
2099637
2268578
444860
2743781
455364
445686
754042
1283077
444860
2801477
2023996
1536592
2023996
2686251
2801477
2023996
444860
2023996
444860
444860
1815522
268746
2686246
444860
455364
268746
238854
1197951
2801477
1883368
444860
1283077
444860
2268578
1542477
754042
444860
2023996
2023996
948071
238854
889953
455364
1283076
1557033
444860
444860
1278479
2801477
2801477
2070026
1283077
1278479
445686
1883369
444860
444860
2686245
2023996
948071
2023996
948071
444860
2801477
444860
444860
2801477
1883369
754042
444860
268746
1283077
889953
444860
238854
444860
2023996
2023996
2686251
2801477
753085
1340810
444860
2023996
444860
1283077
908819
1033977
908819
251749
2686273
194699
908819
2686246
2023996
908819
251749
2023996
445686
908819
908819
536453
2023996
908819
1542477
2023996
908819
2023996
2801477
2023996
2686247
444860
2023996
908819
444860
2023996
2801477
908819
889951
2023996
268746
908819
455364
2023996
2686246
444860
2686246
2023996
908819
2023996
2801477
908819
294631
455364
1586715
294631
294631
1283077
2686246
908819
444860
444860
2686246
444860
889951
908819
1542477
2023996
754059
2801477
2023996
268746
908819
889953
2023996
1883371
242527
889951
2510464
242527
908819
1883371
238854
205879
2686246
753084
693272
889953
444860
908819
889951
1079998
889953
555387
238854
444860
444860
2023996
444860
1814287
908819
754042
2023996
2268578
444860
2023996
754042
754059
268746
908819
2027899
444860
238854
2801477
444860
2023996
444860
2023996
908819
2686246
2588518
908819
2686245
444860
754037
2023996
294631
2801477
889953
908819
908819
908819
2023996
889953
908819
908819
908819
2686246
753085
251749
2041493
754042
444860
908819
2023996
908819
908819
2686246
908819
2686246
268746
268746
2686251
230158
948071
444860
1283077
2801477
2801477
444860
444860
1283077
444860
948071
1278479
2023996
444860
908819
2079426
444860
251749
2268578
908819
2686246
908819
1283079
1493511
754042
444860
948071
2268578
754042
1137745
1542477
2023996
2268578
2801477
455364
2268578
2801477
238854
908819
251749
444860
908819
2801477
1340810
908819
908819
268746
908819
908819
1340810
444860
455364
1283077
1883369
2023996
455364
753085
2510464
2023996
1536592
2023996
444860
2686246
1340810
2740802
2023996
2023996
2023996
2686246
2023996
2686246
444860
889953
2268578
1332145
444860
1586714
444860
2023996
573173
238854
445686
1283077
1883368
444860
2023996
444860
2801477
2268578
2023996
445686
444860
2268578
754042
444860
251749
754042
268746
1586715
2686246
1883368
754042
889953
908819
444860
754042
2801477
1586714
2268578
444860
444860
1536592
2268578
2023996
444860
1557033
444860
444860
2268578
2023996
889953
2686246
2023996
889953
2023996
2268578
2686246
2686246
1542477
444860
754042
2023996
2686246
2268578
2023996
2686246
444860
238854
1033977
2686247
444860
2099637
908819
2099637
268746
444860
2023996
948071
1542477
238854
1033977
1493511
2301529
2023996
238854
1883371
948071
2099637
2740801
268746
444860
2099637
2099637
444860
753084
2023996
1542477
889951
889951
2704031
754042
754042
444860
444860
1883369
455364
444860
2801477
889953
1332145
2023996
2686273
444860
889951
2301529
444860
948071
948071
2801477
2023996
2023996
444860
2099637
1586715
2023996
444860
2099637
2015804
444860
889953
251749
455364
908819
444860
444860
908819
1557034
2686246
1278479
1127518
2801477
2099637
1542477
1340812
445683
294631
1542477
2801477
753085
444860
1340810
2686246
294631
268746
444860
444860
754042
908819
294631
2023996
908819
444860
1542477
444860
2268578
2801477
1883369
754042
2023996
444860
1542477
1283077
2686247
754042
1557033
2801477
1542477
2023996
1557033
1033977
444860
2283026
908819
444860
1033977
1283077
238854
2268578
1883369
2023996
2023996
2801477
444860
455364
1033977
2023996
455364
455364
251749
444860
1493511
2801477
2686246
754042
889953
1557034
444860
2686246
2023996
238854
2510464
2686246
2686246
1026955
2023996
1883366
2686246
2268578
2686251
1542477
2023996
1033977
444860
1283077
444860
444860
2023996
753085
444860
444860
1883369
2801477
1557035
444860
444860
2024264
2268578
754042
754042
2801477
2268578
445685
444860
444860
444860
1283077
2801477
444860
1883366
929835
2686246
889951
35241
880159
2801477
2801477
2023996
908819
1392231
444860
2268578
1883369
1283077
2023996
2801477
2686273
2743801
268746
242527
754059
2686246
445686
2023996
2686273
2801477
2801477
1536592
1572745
444860
2023996
444860
444860
242527
908819
1542477
2686246
2740801
268746
444860
2686246
1283077
1586713
2023996
1814287
251749
2801477
754059
1542477
238854
754042
1034139
242527
444860
908819
455364
756275
445688
1340810
908819
251749
444860
1883369
444860
2510464
1542477
268746
1883366
251749
754042
2023996
1542477
444860
1283077
1883369
268748
2740801
2023996
444860
445686
2070026
1815522
546805
754042
294631
2268578
948071
445700
444860
444860
2023996
1197951
2801477
754042
2801477
2686246
444860
2801477
948071
445686
2268578
268746
444860
444860
2801477
444860
444860
2740801
754067
251749
2686251
1283076
2268578
1278479
2301529
1197951
2027899
445686
1283077
1542477
754048
444860
2023996
1332145
1332145
1332145
754048
908819
455364
444860
444860
1332145
2023996
455364
444860
1033977
444860
889951
1493514
169683
754042
754048
2268578
889953
2772074
444860
889953
444860
889951
444860
1340810
2801477
444860
2023996
2801477
455364
2686251
1586713
2686251
2686246
2510464
908819
444860
908819
2740801
2686246
1168478
444860
1283076
2023996
948071
2801477
2686246
2686246
268746
444860
294631
2023996
2686246
238854
948071
2686251
444860
555387
2686246
2268578
444860
908819
1486472
444860
948071
2268578
2686246
754042
444860
444860
2023996
2268578
2686251
948071
444860
268746
2023996
444860
2023996
268746
2801477
2023996
2686246
754064
2686251
2023996
889951
2023996
2801477
754059
2686246
1542477
2801477
444860
238854
2070026
444860
1883368
444860
445685
1033977
444860
1283077
2686246
1493509
251749
268746
2023996
444860
948870
238854
238854
2023996
1283077
2268578
444860
444860
2686246
2686246
2023996
268746
889953
2801477
2801477
2801477
2686246
251749
1814287
103807
1920310
1197951
444860
444860
2801477
2686246
1557033
2023996
536444
1586715
1542477
1197951
2686246
444860
455364
551790
1197951
908819
889951
908819
444860
444860
756275
2801477
1493514
238854
2070026
546805
1542477
754042
444860
1920310
2268578
2023996
908819
444860
2801477
546805
444860
1197951
551790
1340810
444860
546805
889953
536466
754042
1883369
546805
444860
268746
1197951
2801477
1197951
1197951
444860
2801477
2023996
1283077
1883369
1542477
444860
444860
908819
908819
2686246
2023996
1493513
2023996
1197951
2510464
2041493
444860
1586714
2268578
1586713
889953
2023996
754042
754042
889953
2801477
444860
1168478
2743781
444860
268746
1586714
2686246
1542477
2023996
445686
2041493
2686246
444860
646413
455364
754048
889953
2686251
889953
2041493
1283076
908819
1883368
2801477
2023996
1542477
444860
2268578
948071
2023996
909297
1883369
754042
268746
2023996
1586714
2023996
1493511
444860
444860
444860
2801477
1542477
444860
444860
2686246
889953
754042
444860
908819
1340810
2686246
2686246
908819
1332145
1033977
2686246
948071
754042
2801477
268746
2801477
268746
2023996
455364
2027899
908819
2070026
2023996
444860
444860
2023996
444860
2686246
2023996
2023996
756275
1586714
1168478
2023996
1168478
1283077
889953
444860
2023996
268746
2801477
1340810
1542477
444860
2023996
382359
238854
889953
445686
2801477
889953
889951
889953
1168478
1542477
908819
1542477
2023996
455364
2041493
908819
444860
294631
1542477
444860
2023996
948071
2023996
2023996
444860
268746
2023996
294631
294631
445686
455364
889953
294631
444860
908819
444860
294631
444860
294631
294631
1283077
2023996
908819
948071
444878
294631
1542477
294631
754042
1283077
908819
268746
908819
2070026
444860
2023996
2023996
2023996
2508195
754042
444860
908819
889953
2801477
2023996
908819
908819
294631
251749
2801477
294631
2801477
444860
444860
444860
754042
2023996
2023996
754042
444860
1332145
1332145
2801477
2023996
455364
1283077
2301529
444860
455364
1340810
444860
2023996
1332145
1586714
444860
294631
444860
2801477
2801477
444860
2686251
1033977
2801477
455364
455364
444860
1332145
1283077
1883369
445686
2801477
2801477
2023996
2268578
444860
1586715
2301529
455364
754042
251749
2100130
2023996
2686246
445686
2268578
444860
444860
2023996
1392231
444860
2099637
2801477
444860
2740802
889953
444860
2759730
444860
2023996
2510464
238854
1283077
1883369
2023996
1542477
1283077
948071
444860
2301529
948071
2801477
2740801
1283077
2801477
2801477
754048
2740801
753085
2268578
444860
2023996
2740801
1542477
444860
444860
2268578
2023996
444860
2801477
573171
1493511
2686246
1557033
573171
1542477
2686251
2801477
754048
2023996
2023996
2268578
2740801
908819
242527
908819
2023996
908819
444860
555387
445686
1542477
2023996
754059
444860
444860
1493511
948071
444860
2023996
948071
753085
1586715
573171
2740801
268746
573171
2686251
2801477
382359
754042
1920310
573171
2740801
573171
2023996
2268578
754042
2686246
1542477
1340810
2740801
948071
444860
948071
1283077
2686273
268746
444860
2686273
2686246
347327
1883369
294631
948071
455364
444860
948071
136084
2801477
444860
444860
2686246
2801477
754042
445686
2510464
754048
754048
444860
444860
2268578
948071
2023996
347327
455364
268746
908819
2801477
1357423
455364
2801477
444860
754042
908819
2023996
444860
2268578
1542477
2100130
908819
445688
889953
1283077
2801477
2023996
268746
444860
948071
908819
948071
948071
444860
1357423
754042
2545435
754048
2686246
2686251
347327
908819
444860
444860
2686246
2686246
1283077
2686246
2801477
2686246
2545435
444860
2743801
2268578
2545435
2545435
2545435
2545435
2545435
2545435
2801477
444860
445688
2545435
2801477
2545435
2545435
869724
1542477
1493511
2545435
2545435
445688
2545435
948071
2686246
444860
2545435
2545435
444860
908819
2545435
2545435
754042
2545435
2545435
2545435
2545435
2023996
2023996
2023996
2545435
2545435
2545435
1273711
754059
1838074
2545435
2545435
2801477
444860
2545435
2545435
1542477
1815522
2686246
2545435
1283077
2801477
2545435
2545435
2545435
2801477
2545435
889951
908819
2545435
2023996
2023996
2301529
2545435
445686
444860
2545435
2041493
2545435
2686246
2545435
445686
2545435
2545435
2023996
444860
756275
2743801
2545435
2545435
444860
2545435
2545435
444860
2686246
2545435
909297
2023996
908819
2545435
2268578
2545435
754042
2545435
2743801
2545435
2545435
2801477
444860
455364
2545435
2023996
2545435
1195085
2545435
2545435
2545435
2545435
2545435
756275
2545435
2545435
2740801
2268578
754042
444860
1283077
2545435
2545435
2545435
2545435
445686
242527
1557033
2545435
2686246
908819
2801477
444860
268746
2023996
444860
151535
1332145
268746
1168478
444860
2801477
2100130
444860
1332145
268746
455364
754042
2801477
536466
444860
2268578
889953
2041344
2301529
880159
445686
555387
2510464
1880590
444860
2686246
1542477
268746
444860
1332145
455364
1542477
1493511
2686246
260149
1340810
444860
754067
2301529
444860
2023996
908819
2023996
444860
1332145
221915
754042
445686
2801477
2801477
2801477
2686246
908819
445686
2801477
268746
908819
444860
908819
444860
1883369
2301529
1137745
908819
908819
754042
908819
444860
2801477
1815521
908819
2686246
2801477
908819
908819
2268578
908819
754041
908819
251749
908819
1283076
908819
268746
444860
754042
1815521
2510464
2023996
754042
2801477
444860
1883368
2023996
2801477
2686246
444860
268746
1493512
268746
444860
251749
444860
444860
2023996
1283077
1283077
1883369
268746
444860
2023996
455364
444860
754048
908819
1883369
536466
754042
444860
1536592
444860
2023996
754059
2099637
444860
1883368
753084
1557033
2545435
1542477
889951
1586715
2545435
2801477
754048
238854
908819
754048
444860
908819
2801477
2801477
2023996
2801477
573171
754041
754042
2023996
1557033
2686251
444860
2268578
251749
1335230
2099637
455364
754048
1493511
2686251
948071
2801477
2268578
948071
2590946
2801477
754048
2545435
754042
2023996
889951
2801477
169683
948071
1883369
754048
1883369
2023996
444860
1883366
2041493
754042
2801477
2801477
754059
1542477
754048
2801477
2023996
908819
2686246
1557033
754048
455364
2023996
1542477
2801477
1586713
1335230
909297
444860
1340810
455364
948071
169683
1542477
754067
2023996
444860
754042
889953
754048
238854
908819
444860
754048
2172042
948071
1033977
2801477
1883369
1542477
1542477
1168478
908819
268746
2801477
444860
444862
2686251
169683
2801477
268746
444860
889951
1335230
909297
444860
869662
2100130
1084719
444860
2268578
455364
1542477
1815521
754048
455364
2801477
754048
754042
1542477
2023996
908819
1586713
2801477
1542477
1557034
754042
169683
908819
444860
1033977
2041493
2545435
2686246
754059
754059
1557033
2023996
444860
1283077
2268578
754059
1493511
1883368
889953
869724
909297
268746
1883368
2268578
444860
444860
756275
2268578
2268578
444860
2301529
444860
753085
1883366
1283077
2801477
444860
1883368
444860
1283077
2686246
2801477
889953
445686
2023996
444860
268746
444860
2268578
753085
455364
2023996
754037
445686
754042
2268578
2315608
1283077
444860
754042
2723758
1542477
889953
2268578
908819
2801477
2015853
445686
1283077
2268578
2023996
444860
889953
908819
889953
2686246
444860
2686246
2268578
444860
2023996
1340810
908819
445686
908819
444860
2023996
2023996
2023996
444860
2686246
889953
908819
2015853
1283077
889953
2301529
2686246
1883369
2686246
268746
444860
908819
2801477
445688
754042
2801477
444860
251749
335797
948071
948071
2023996
444860
889953
2801477
2686273
268746
908819
2268578
908819
2268578
2801477
1197951
444860
1883366
948071
1283076
2023996
1127518
880161
2052742
268746
1273711
444860
754067
444860
2023996
754042
908819
908819
948071
445686
754042
2023996
880161
2801477
260149
2686251
2801477
1542477
444860
880159
2801477
445688
889953
444860
445688
2023996
444860
2023996
889953
1883369
754042
2801477
948071
238854
2023996
889953
444860
1815522
1340810
445686
2801477
754042
1883369
754042
754042
455364
1340810
2686266
2686246
948071
2041493
444860
1542477
1283077
444860
1542477
2268578
2023996
754059
2686246
2023996
444860
455364
268746
444860
1493513
2686279
1557033
2801477
445688
455364
1838074
546805
444860
756276
268746
2070026
1283076
2801477
2510464
444860
2023996
1332145
948071
444860
2023996
2510464
1586714
2686246
754042
294631
2023996
2801477
268746
268746
1283077
754059
444860
2100130
908819
908819
1197951
908819
2801477
948071
294631
2023996
2801477
908819
754048
2100130
754042
2686246
2268578
754042
754042
294631
294631
445686
2686246
1542477
2268578
908819
889953
2023996
1542477
1278479
908819
1335230
238854
1542477
2686251
238854
268746
251749
1283077
2023996
908819
444860
2686246
238854
754048
2801477
251749
2023996
2686246
1048189
455364
1283077
754042
444860
754048
238854
2686246
2023996
169683
136084
1283077
908819
444860
455364
2301529
2023996
754048
444860
445686
294631
455364
754048
889951
909297
1815522
2023996
2023996
251749
1883369
2023996
1536592
2023996
2686246
1109714
2023996
455364
2686246
908819
444860
753085
2023996
753084
573171
1542477
251749
1586715
455364
2023996
2801477
1586715
455364
754048
2686246
2023996
889953
2023996
754048
2801477
948071
2023996
268746
573171
2070026
936152
444860
1493511
573171
444860
2023996
2801477
1815521
2023996
2801477
1815521
2023996
2023996
455364
1815521
948071
1327971
444860
2023996
2315608
1542477
1493511
1283077
2268578
444860
2070026
2023996
1557033
2801477
2801477
2801477
2023996
251749
908819
444860
455364
238854
2023996
2686246
909297
1033977
1357423
754042
2023996
444860
2079289
455364
2686246
2023996
444860
908819
2023996
2268578
268746
215158
754042
948071
1815521
2268578
1815521
1815521
1586714
2801477
1542477
1493511
445686
2023996
444860
444860
1493511
1493511
238854
1883369
1542477
1880590
1357423
948071
948071
2023996
753085
645664
1542477
869662
754037
268746
2686246
2023996
2041493
1332145
1586715
2268578
908819
1586713
2268578
1815521
238854
869724
2801477
2301529
948071
754042
948071
444860
889953
2801477
2801477
1883369
444860
948071
2801477
948071
1033977
444860
869724
1493511
268746
1278485
2801477
1542477
238854
2686246
1493511
889953
2023996
948071
2023996
1493511
2023996
455364
1357423
444860
1283077
948071
238854
444860
908819
948071
948071
444860
756275
2801477
455364
754042
294631
444860
1493511
444860
445686
2801477
1542477
169683
169683
1542477
169683
908819
1883369
1542477
169683
2801477
2315608
444860
908819
1913591
444860
1168478
455364
268746
169683
2801477
2268578
169683
169683
908819
2268578
908819
2023996
2686246
1340810
169683
169683
2801477
2023996
908819
205879
2686246
1493511
2023996
889951
169683
169683
754042
169683
2545435
2070026
444860
444860
455364
251749
1493511
169683
754042
169683
169683
2686246
908819
754059
2801477
268746
2801477
268746
2801477
908819
1536592
169683
889951
908819
446529
1542477
445685
1542477
2801477
948071
889953
2023996
756275
1283077
444860
2023996
2801477
455364
2023996
1283077
1042122
2023996
444860
889951
1542477
908819
1283077
444860
754067
2023996
444860
444860
889951
2023996
908819
2686246
444860
2023996
2023996
1283077
908819
908819
753085
238854
1883365
948071
1026955
948071
908819
889953
2023996
1283077
948071
2268578
908819
1536592
2801477
444878
754059
2023996
1589733
2801477
2686246
2023996
2023996
2041344
2801477
268746
2510464
2801477
1542477
948071
1283077
948071
251749
1541883
948071
444860
455364
444860
2268578
2023996
2801477
2686246
754042
908819
1883365
444860
948071
2070026
2801477
536466
444859
444860
948071
444860
2801477
1283076
2023996
2301529
756275
2801477
889953
889953
754042
1883369
444860
573171
2686246
2801477
455364
238854
455364
754048
2801477
2686246
2801477
2100130
2686246
2023996
2801477
889953
268746
445685
754041
251749
948071
444860
268746
573171
238854
2053813
444860
546805
2801477
693272
908819
251749
2023996
908819
2593333
251749
2801477
2301529
2510464
2100130
908819
2801477
1542477
754042
1920310
754042
754048
948071
2023996
2801477
2686246
444860
2041344
1283076
2023996
136084
573171
1283076
754048
1542477
753085
754042
1332145
444860
444860
268746
2023996
536466
455364
169683
948071
2801477
756276
2023996
754042
754048
444860
2023996
2801477
536466
1168549
1197951
1357423
1542477
2023996
1542477
2801477
444860
1814287
251749
2801477
908819
444860
1542477
444860
455364
909297
889953
2023996
2023996
1883369
2801477
444860
2023996
889951
2801477
2801477
908819
2268578
889951
1542477
754042
756277
2593333
1838061
2023996
251749
908819
444860
2510464
1586713
238854
2801477
2716352
754039
238854
2801477
2801477
251749
2686246
444860
889951
889951
238854
1283077
889951
2801477
1815522
445685
444860
2268578
754037
1557033
948071
2023996
444860
444860
2268578
2517973
268746
268746
908819
2686251
2801477
908819
536474
889953
889953
444860
753085
1168479
444860
251749
908819
908819
2023996
169683
1838074
1586713
444860
908819
455364
112023
2801477
908819
2652402
754037
444860
445686
2268578
908819
444860
2686251
2268578
455364
2723758
2686246
2268578
1542477
2686251
444860
444860
1026955
169683
268746
169683
444860
2801477
948071
908819
238854
169683
1026955
1536592
2801477
2268578
2301529
948071
908819
889953
2099637
2772074
2023996
169683
444860
2593333
268746
1557033
444860
2545435
948071
169683
251749
2099637
1883368
169683
754042
1278479
444860
169683
1197951
169683
2686246
169683
444860
1883369
2801477
268746
2268578
2686246
1883369
2268578
169683
1542477
948071
1557033
2023996
1340810
169683
754067
2801477
908819
948071
444860
2801477
2801477
268746
2686246
1883369
2023996
444860
238854
444860
2801477
2801477
1883369
2801477
444860
1586715
889953
444861
35241
754037
2801477
444860
2023996
444860
754042
2686246
756275
2023996
754042
1542477
1283076
1283076
2686246
1542477
1542477
2510464
2268578
35241
444860
2801477
2801477
908819
754039
908819
444860
1883368
1542477
2686246
2801477
238854
889953
2315608
1197951
2801477
444860
251749
948071
444860
1168478
2801477
455364
756275
2801477
2023996
251749
444860
444860
205869
2268578
754042
444860
2023996
948071
2801477
908819
889953
1883369
546805
908819
753085
1542477
908819
1838061
2268578
753085
2510464
889953
2801477
889953
2801477
238854
754042
754042
268746
455364
754042
2079426
2801477
2023996
948071
455364
2741076
2023996
753085
754037
444860
455364
2545435
908819
880159
754042
754042
444860
2023996
2268578
445686
869724
445688
908819
2268578
445696
444860
238854
754042
2801477
2545435
754042
444860
2545435
948071
2023996
2023996
754059
2545435
889953
889951
754042
889951
1542477
455364
889951
2100130
889951
444860
889951
2510464
2801477
444860
546805
889951
1556290
1542477
2740801
1542477
2023996
909297
1197951
2801477
2801477
2801477
2545435
2100130
2801477
889951
444860
1542477
444860
1557033
2686246
444860
2268578
754042
238854
2023996
2099637
889951
754059
251749
1880590
908819
2100130
1536592
2023996
444860
754042
908819
2545435
455364
889951
1586714
889951
268746
754042
2801477
445688
2268578
444860
754059
555387
444860
753084
1542477
1880590
444860
238854
444860
889951
889951
889951
1335230
1283077
908819
889951
1557033
889951
948071
889951
2023996
1536592
455364
2801477
2801477
2801477
1792274
2023996
2268578
238854
754042
1127518
455364
1917232
444860
908819
1589733
444860
2023996
1883368
444860
2593333
268746
1883369
260149
889953
238854
268746
1542477
2023996
2801477
455364
445686
444860
1273711
444860
2023996
238854
444860
444860
1283077
238854
444860
2023996
1557033
382359
2801477
1536592
948071
444860
889953
1033977
2801477
754042
445686
1283077
2801477
238854
268746
268746
1127518
2023996
445700
1589733
754048
2801477
1493511
2268578
2801477
948071
2023996
2023996
251749
444860
251749
2686251
2801477
268746
1493512
444860
889951
756275
444860
908819
1557033
2510464
2801477
2801477
754048
1542477
754048
194699
754042
908819
2099637
753084
2801477
1883368
444860
2510464
238854
869724
754042
2023996
444860
1874539
573171
1026955
1557035
2023996
444860
2023996
754042
1874539
444860
2801477
1586715
431892
2801477
444860
444860
754059
2041493
908819
444878
2545435
2023996
294631
444860
573171
2801477
444860
194699
2801477
2801477
444860
2268578
908819
908819
889951
2801477
445686
2686246
1983572
754042
2023996
2023996
1542477
546805
444860
908819
1283076
1536592
2801477
2023996
444860
444860
2801477
546805
573171
2100130
2545435
238854
444860
2801477
444860
2301529
2801477
948071
753085
444860
2686246
1026955
754042
2801477
444860
754042
536466
1026955
754042
2023996
546805
2686246
1913591
1335230
948071
889953
573171
444860
2801477
1168478
754042
573171
546805
2315608
2023996
444860
444860
1026955
889953
2023996
2686246
2041493
444860
445686
444860
444860
444860
444860
1109714
754042
754042
2801477
444860
908819
889953
444860
948071
2041344
948071
445683
444860
948071
948071
444860
2268578
756275
2023996
268746
948071
948071
2801477
194699
948071
444860
948071
754042
251749
1340810
268746
754042
948071
251749
2801477
444860
2801477
1327981
1283077
294631
948071
444860
948071
444860
2023996
444860
2801477
948071
444860
948071
948071
2268578
948071
445683
444860
948071
948071
2801477
444860
444860
444860
445686
908819
444860
948071
2023996
444860
889953
2023996
908819
2023996
294631
948071
1325953
445686
1586715
2041344
948071
1283077
444860
444860
2716352
2268578
2801477
444862
268746
1493511
2801477
2801477
1815522
2801477
294631
2740801
445686
444860
2740801
1168478
444860
908819
2740801
1327971
382359
445700
756276
444860
2801477
1838074
444860
754041
444860
1536592
445686
754048
2023996
2740801
2740801
555387
445700
294631
2268578
889953
1883368
444862
444860
754041
2801477
2740801
2488789
908819
908819
2801477
754059
1493511
2023996
2023996
2023996
754059
2686246
35241
1026955
889953
889953
2740801
2801477
756276
444860
754059
1327971
444860
2023996
754048
889951
2740801
1883369
1283076
2268578
444860
889951
251749
1526550
1327971
238854
1493510
446529
754059
2686246
205877
445688
754042
1283076
445686
948071
2740801
2686246
754042
756275
2740801
444860
754041
455364
1168478
2740801
1033977
754059
2268578
238854
268746
754042
1586715
268746
1168479
444860
444860
1349410
754042
889951
444860
2023996
455364
1332145
2801477
1168479
238854
444860
889951
889953
1815630
242527
2301529
2740801
754042
268746
2024607
1168478
754059
2023996
2740801
2801477
2041493
2023996
908819
2268578
1168478
889951
251749
754042
555387
1883369
908819
2801477
754042
444860
2801477
908819
2023996
754037
1283077
889953
1586715
444860
2686246
2268578
444860
444860
908819
908819
444860
2024264
445686
2801477
1542477
268746
444860
2023996
444860
2023996
908819
754042
2023996
455364
444860
444860
2801477
444860
754042
444860
756276
2510464
2801477
754042
1493513
1278402
455364
444860
2099637
2801477
1283077
444860
294631
268746
136084
444860
2545435
461711
889953
194699
2023996
754059
2801477
908819
948870
2801477
445688
1283078
444860
445696
444860
2099637
2801477
444860
2801477
754039
889951
754042
546805
268746
2801477
1586715
444860
2801477
444860
2023996
2801477
455364
948071
948071
1283078
2686246
2023996
2023996
2740801
2517973
294631
948071
2023996
1883369
2801477
444860
444860
948071
268746
2301528
444860
112023
2801477
753084
445686
754042
444860
444860
889953
238854
2740801
754042
948071
1493508
444860
756275
2023996
2686251
754042
444860
1332145
948071
2023996
444860
2023996
573171
169683
1969841
754042
908819
754042
1283077
754042
445685
2801477
1883369
444860
2801477
1168478
169683
1168478
35241
1883369
444860
889953
2041493
2041493
444878
1586715
444860
2686246
1883368
754037
1874539
1874539
908819
948071
1335230
268746
1542477
169683
2268578
1983572
445686
2015853
169683
948071
754042
268746
1327983
2099637
1586714
1883369
889953
2801477
444860
2268578
908819
1493509
169683
294631
322019
1586714
169683
889953
2801477
2562175
1335230
555387
444860
251749
169683
2023996
754042
908819
1542477
2268578
2023996
2686246
754042
1197951
1197951
1197951
1197951
2041344
756275
2801477
889956
1283077
2801477
1278479
948071
2686245
444860
2268578
1815521
2801477
444860
2801477
1197951
238854
1340810
1557033
1168478
753085
444860
2801477
444860
756275
136084
444860
2023996
444860
445684
1883368
754048
754042
1197951
1493513
242527
573171
238854
948071
1586714
194699
948071
908819
2099637
1567484
1542477
268746
2268578
238854
444860
1325953
1815521
1197951
1197951
1197951
948071
2023996
1197951
2741076
444860
889956
444860
1197951
1283077
889956
754042
889956
1197951
444860
1332145
869724
908819
889953
1557033
1883369
238854
754042
2015853
2023996
880159
1557033
238854
444860
2070026
2801477
754042
444860
2801477
1127516
869724
1283077
445686
1332145
1332145
1168478
1493511
1542477
251749
2023996
1557033
869724
444860
251749
2023996
889953
446529
1332145
687803
869724
1493511
754042
2023996
444860
948071
1883368
1332145
2268578
445688
948071
1883368
754042
444860
1883368
444860
444860
754042
889953
2301529
268746
1883369
2268578
754042
444860
908819
444860
948071
948071
2023996
889953
444860
444860
1883369
445686
2801477
1493511
238854
2023996
444860
444860
2801477
948071
948071
1283077
445688
444860
445683
2023996
1557033
948071
948071
444860
444860
948071
194699
455364
1542477
889953
756275
2268578
889953
948071
948071
2268578
948071
948071
753085
1493511
889954
1586714
948071
948071
444860
948071
2023996
948071
948071
756275
948071
2801477
948071
2023996
754042
444860
948071
2801477
948071
948071
2023996
444861
444860
948071
455364
948071
948071
948071
754048
1542477
754042
1340810
251749
444860
444860
948071
1493511
2023996
444860
1168478
1586715
948071
444860
753084
1197951
1815522
948071
444860
444860
948071
2023996
2023996
1880590
948071
1273711
444860
2686246
753085
444860
1197951
2686246
2015853
2801477
1391433
908819
444860
756275
2801477
445696
1229753
1493511
909297
908819
444860
2801477
754042
908819
754042
889956
238854
754042
444860
754042
2100130
754042
1917232
2023996
754042
1542477
2801477
908819
1874539
1273711
2023996
754042
889951
2268578
889951
444860
444860
754042
238854
444860
754067
1493511
658401
2801477
2023996
444860
1542477
1273711
2741076
444860
455364
2801477
754059
2686247
754042
908819
1567472
754059
754042
754042
2510464
1493511
2100130
1168479
1273711
2023996
1273711
754042
754042
2801477
1079999
754042
2041493
754042
1340810
444860
1283077
889953
1493511
754042
455364
2686246
1392231
445700
2268578
1332145
1493513
2301529
2686266
754042
444860
754037
1283077
2023996
251749
1283077
1340810
335797
2023996
444860
1874539
335797
2686246
2801477
444860
754042
1883369
889953
181082
444860
1542477
444860
2023996
444860
2740802
754042
2801477
1874539
2801477
1079999
2801477
1127518
754042
2023996
754042
2801477
2801477
444860
444860
2801477
444860
1874539
2283265
1874539
444860
1874539
444860
2023996
455364
1883369
2023996
889956
444860
2268578
948071
1969841
2801477
1168478
2023996
753085
754042
1493513
2023996
2686246
2686246
908819
2801477
1542477
1586715
1278402
1874539
1283076
2070026
444860
444860
212035
908819
754042
445688
1586715
2268578
455364
2041493
2023996
754042
382359
446529
2686245
238854
1542477
1109714
754042
1883368
948071
382359
2024264
1586715
2801477
1536592
444860
889953
2801477
445696
444860
1821560
1874539
1874539
444860
2686251
754059
1883369
444860
869724
753085
455364
948071
238854
444860
889951
382359
194699
444860
1168478
1327971
754042
2801477
444860
354260
444860
889953
2801477
908819
2801477
205869
2801477
372457
1567484
242527
1542477
948071
889953
2015853
2268578
2801477
909297
2023996
444860
169683
2801477
1168478
444860
194699
2268578
268746
268746
268746
2801477
754048
1079998
444860
268746
908819
455364
2023996
2023996
444860
238854
455364
908819
444860
948071
908819
444860
1340810
238854
1874539
948071
908819
1536592
444860
1542477
35241
908819
754042
948071
251749
1874539
1557035
444860
754042
444860
948071
948071
889953
181082
444860
754042
1586715
2041344
1542477
948071
2801477
2801477
2801477
444860
2010329
2023996
1493511
908819
2801477
444860
444860
1874539
444860
194699
251749
2801477
2023996
1084719
1084719
444860
753085
2801477
2268578
444860
444860
444860
444860
169683
2023996
1874539
169683
2023996
1874539
1493511
169683
2686246
2801477
169683
948071
169683
908819
754048
1168478
1557033
573171
169683
546805
2301529
2545435
268747
2023996
455364
169683
444860
1883368
169683
908819
444860
1327971
169683
169683
294631
2686246
1883369
1542477
251749
444860
169683
754042
1283077
929832
444860
2740802
431892
444860
169683
2801477
431892
1493511
573171
1541883
753084
444860
2801477
169683
1874539
1327971
889953
908819
169683
889953
2801477
2741076
444860
169683
169683
268746
948071
1327971
2686246
444860
169683
1526550
431892
444860
753084
754042
908819
908819
908819
573171
444860
469660
889953
2801477
354260
268746
1168478
444860
444860
948071
590739
948071
889953
1542477
948071
1168478
2686246
2801477
444860
444860
948071
2743781
444860
2268578
2686266
2023996
889953
2070026
948071
181082
948071
444860
1883368
2023996
889951
444860
444860
2041344
948071
948071
2725629
908819
455364
555387
756275
948071
2686246
268746
455364
948071
2801477
10689
1874539
251749
2743781
194699
948071
754059
536453
948071
908819
948071
908819
2023996
455364
948071
455364
753084
889951
2023996
948071
251749
2070026
2023996
948071
1815521
2801477
1493511
2686246
2041493
908819
2801477
2041493
948071
948071
754037
754042
1283077
869724
1168479
908819
444860
444860
2801477
908819
1283076
1168478
2801477
889951
754042
444860
2743781
2801477
889953
444860
1586715
1283077
2801477
948071
948071
2023996
1883369
445688
2023996
2023996
2740801
251749
268746
268746
2740801
1283077
444860
754042
754042
445686
2023996
2023996
294631
2801477
1278479
2801477
238854
1197951
2740801
1542477
754042
889953
2801477
948071
1542477
2801477
2023996
444860
2801477
1557033
1874539
1283077
444860
445686
444860
1883365
2696401
908819
753085
1883368
205869
444860
2023996
2740801
238854
908819
948071
693272
2686246
2268578
948071
455364
2023996
1026955
1874539
2801477
1127516
1874539
238854
2740801
2740801
444860
445684
444860
2801477
294631
754067
2686246
1283077
693272
754042
2801477
908819
2023996
687803
2740802
2740802
444860
2801477
136084
693272
880162
2801477
1983572
1874539
2041344
754042
1874539
2023996
2023996
444860
444860
444860
444860
2041493
2023996
2801477
889953
268746
2023996
238854
1084719
221915
444860
908819
2801477
2801477
2023996
2023996
1542477
2301529
1542477
2268578
444860
1874539
238854
238854
136084
908819
2268578
445685
455364
444860
444860
444860
1874539
2041493
1197951
1493512
1340810
444860
251749
1168478
444860
546805
2023996
1983572
1586713
444860
2801477
444860
251749
445683
754042
2023996
754037
1127518
2023996
754067
546805
2801477
1874539
268746
2023996
1168478
909297
1815522
2268578
908819
2686251
1449437
948071
2801477
1283077
908819
1573458
1883366
2545435
444859
194699
754042
948071
2041493
908819
754048
1874539
444860
908819
908819
2268578
1283076
445686
908819
2590946
169683
908819
2023996
268746
1197951
908819
948071
754038
948071
1542477
2023996
2023996
1883366
2686246
238854
1883369
908819
908819
1874539
2686245
2023996
754067
908819
444860
2023996
2801477
2023996
908819
444859
251749
2801477
1278479
2801477
445686
1168478
1542477
455364
1917232
908819
908819
444860
444860
1168478
948071
2686246
555387
2801477
444860
754067
889953
948071
1880590
1815522
445688
445686
908819
1168549
444860
2025360
2023996
1874539
948071
948071
1983572
948071
444860
2686246
908819
889953
455364
1883369
754042
909297
1883366
2801477
445688
756275
908819
948071
754048
169683
2023996
268746
169683
1197951
169683
169683
444860
169683
169683
169683
1436889
2023996
2023996
2801477
1026955
169683
444860
754042
1573458
2023996
2686246
2545435
1883369
889953
2801477
2801477
908819
2801477
238854
1927017
294631
1586714
169683
2023996
444860
754048
169683
169683
444860
251749
444860
948071
169683
754042
2801477
169683
169683
2686266
268746
169683
1874539
2301529
754048
756276
169683
169683
169683
908819
754048
2801477
169683
444860
754048
1542477
1026955
754048
268746
2801477
169683
889951
2023996
169683
1557033
1880590
1883369
444860
2801477
444860
444860
169683
169683
754048
445688
444860
169683
2010329
444860
754048
169683
1283077
2801477
1168479
1283076
1542477
2023996
2801477
2023996
444860
1168478
169683
169683
536466
948071
2023996
169683
2041493
908819
169683
2801477
445686
2801477
382359
444860
169683
573171
455364
169683
1874539
1883369
754042
1556290
948071
2041493
2686246
444860
2801477
2023996
444860
889951
2686246
2023996
2801477
2801477
444860
2015853
754042
1168478
2545435
889951
2801477
753085
444860
756276
2545435
754042
238854
444860
444860
908819
2545435
2801477
444860
2545435
2686266
754042
2686266
889951
908819
754042
445688
889951
444860
238854
1283076
754042
445696
445688
445688
1586714
1283076
1557033
1557033
445688
268746
1874539
444860
2801477
10689
455364
2023996
2740801
754042
2545435
1283076
2268578
455364
268746
2545435
2545435
1586714
889951
2268578
2686266
445686
1542477
446529
444860
2545435
2545435
1542477
445688
889953
444860
2023996
268746
1084719
948071
2545435
1542477
2801477
2686246
754042
194699
136084
1883369
754042
444860
1880590
2301529
268746
908819
1983572
444860
2023996
444860
455364
1392231
908819
444860
444860
1033977
2023996
1542477
445700
869724
446529
2801477
1127518
1883366
565140
1883369
2041344
2283025
2510464
2801477
536474
251749
2023996
446529
268746
2491321
1883365
1392231
238854
908819
444860
536453
1283077
1874539
908819
444860
444860
444860
1542477
948071
1883366
908819
2801477
455364
444860
2801477
444860
754037
1883365
2801477
2801477
444860
445688
754042
754042
1283076
889953
2010329
445688
444860
756275
753085
268746
1137745
2741074
444860
1586714
238854
268746
2041493
1586715
2510464
2015853
268746
573171
445686
445688
2801477
445688
754042
2686251
1883369
444860
1586714
546805
1883368
2015853
2686251
445688
205879
445688
1883369
455364
2801477
2053653
444860
754042
1137745
2686245
445688
1874539
455364
1874539
444860
1874539
2801477
573171
268746
573171
1874539
546805
445688
2023996
2801477
754048
2801477
754037
1586713
2686251
1573458
444860
573171
445688
754042
1493511
169683
444878
753085
1586714
445688
948071
573171
1874539
2488788
446529
754042
268746
444860
2282904
444860
754048
889953
444860
444860
445688
2801477
2801477
2315608
2268578
2801477
1838074
2041493
754042
445688
2268578
2801477
1235689
1821560
268746
1883369
754067
1557033
754042
948071
2801477
444860
251749
2801477
2023996
1273711
754048
2801477
754048
2801477
2801477
2740802
908819
1340810
445686
2801477
2686266
2801477
754067
1325953
2301529
2801477
2801477
268746
2716351
445688
753084
251749
251749
2023996
889951
238854
1880590
268746
2743781
2099637
444860
1555202
2801477
754042
1555202
2023996
2801477
444860
2801477
1168478
2801477
444860
445686
1542477
2268578
445686
251749
268746
1235689
2023996
2801477
1168478
1269028
2801477
1168478
546805
1168478
889953
238854
2801477
2023996
268746
2716352
444860
2801477
693272
445686
948071
948071
908819
616674
1357423
2801477
1084719
1137745
2801477
444860
948071
908819
2801477
908819
2740801
2268578
1283077
194699
444860
1278479
1052673
2801477
2801477
1168478
889953
2023996
444860
1983572
2801477
1874539
1874539
908819
1965368
268746
1917232
2023996
455364
908819
445686
2801477
2801477
756275
1283077
2740801
1965368
2801477
2801477
238854
908819
444860
2023996
908819
1874539
2801477
2716352
169683
444860
908819
444860
1340810
2801477
1542477
268746
444860
908819
754042
1283078
908819
889953
1542477
1283077
908819
2801477
1493511
238854
444860
2801477
908819
2801477
445688
1332145
268746
2079426
445688
444860
2801477
35241
908819
1586714
2041493
908819
1137745
2301529
948071
908819
2301529
2740801
268746
455364
444860
889951
1283076
880162
754042
1283078
455364
2041344
1557033
908819
2801477
444860
908819
2801477
1880590
754059
268746
2024264
754042
908819
268746
908819
455364
753084
889951
1874539
1557033
2686245
1874539
889951
546805
169683
2562175
1573458
753085
754042
294631
756276
444860
1557033
948071
455364
294631
2801477
455364
754059
2023996
1493513
2801477
2301529
444860
238854
444860
1814287
908819
445683
444860
754059
908819
444860
908819
2801477
908819
754059
754042
35241
908819
2268578
444860
455364
444860
889951
754059
455364
1283077
756275
754042
908819
2801477
2801477
268746
455364
1883366
1573458
889953
2686246
754059
765765
1542477
754042
268746
756276
754042
2491321
1586715
279383
948071
754048
1536592
455364
889953
2023996
1079999
2041344
444860
444860
268746
444860
1883365
889953
444860
687803
909297
242527
889953
1573458
1874539
1883369
444860
444860
1542477
754042
445686
1874539
444860
445683
1536592
444860
1880590
2023996
754042
268747
444860
1883368
1874539
444860
1874539
1962671
1536592
2801477
889953
2801477
948071
889953
2023996
2023996
251749
242527
444860
754048
1557033
754042
908819
2268578
268746
2801477
1325953
238854
455364
2041493
294631
2801477
555387
1168478
268746
1874539
754042
754048
1206110
455364
753084
2041493
194699
444860
2801477
238854
2686246
1168478
444860
2801477
238854
2801477
1542477
1874539
1168478
238854
2041344
238854
242527
444859
444859
1874539
948071
908819
889953
445696
2801477
1392231
2801477
238854
2686246
1874539
754042
1883366
889953
1557033
948071
1493511
2268578
444860
948071
948071
455364
948071
948071
2801477
948071
2801477
2801477
444860
908819
1542477
2801477
754042
444860
908819
1586715
754037
2023996
948071
889953
2686251
948071
2023996
1557033
444860
444860
948071
2023996
444860
948071
2801477
908819
444860
1874539
1542477
948071
2686251
238854
444860
268746
948071
1283076
2801477
1874539
948071
2023996
444860
948071
444860
908819
2510464
948071
444860
948071
2801477
754048
948071
754042
238854
1542477
948071
445688
1283077
1493513
948071
1874539
444860
948071
1542477
1874539
754042
948071
1585840
2801477
1880590
948071
1542477
445688
948071
948071
2801477
2023996
1874539
2801477
889953
1874539
2686246
2100130
221915
251749
445685
1815521
2801477
238854
2301528
754042
1542477
444860
948071
1542477
1283076
1874539
2801477
444860
2268578
948071
889953
754042
205879
251749
251749
754064
2023996
444860
2024264
2041344
1168478
268746
268746
1874539
948071
2268578
2070026
2268578
1493511
2041344
1874539
444860
1283077
1883369
251749
1874539
2772086
754042
754042
444860
445686
2801477
948071
2023996
754042
1542477
948071
754042
444860
756275
444860
444860
1283076
2268578
238854
445686
1815521
948071
1542477
948071
1542477
1486472
205869
948071
948071
1874539
1340810
2023996
2801477
2801477
1883369
251749
2801477
2801477
444860
444860
754042
2510464
1327981
908819
268746
444860
2023996
444860
444860
444860
444860
2023996
444860
251749
2801477
445686
444860
1474867
2023996
1557033
2023996
268746
756275
2023996
444860
2510464
2801477
444860
2023996
2023996
268746
536466
889953
2801477
279280
444860
251749
1168478
2023996
268746
1880590
756275
444860
1536592
1883368
754042
2801477
444860
2510464
444860
444860
908819
279280
238854
268746
2801477
444860
2801477
754042
444860
1883369
444860
444860
444860
754042
444860
1283077
1883369
1168478
444860
1542477
2801477
2491321
444860
1283077
889953
2023996
754042
2801477
1168478
889953
251749
2801477
754042
444860
2491321
445686
754042
2716352
444860
2801477
230158
948071
1493511
2801477
238854
1874539
1493511
2268578
754042
444860
444860
268746
2801477
2023996
948071
2025360
1283077
2740801
1874539
948071
444860
2041344
455364
354260
444860
2801477
753084
444860
1327982
1821560
2801477
2079426
10506
2740801
2686246
1542477
2686251
2801477
444860
136084
908819
754042
2301528
238854
948870
1874539
2023996
280701
1493510
2686245
444860
268746
2801477
2686247
1536592
889951
754042
696472
238854
1557033
2801477
2801477
754042
444860
455364
1874539
754042
1536592
2686246
1542477
1874539
2601643
444860
1874539
2801477
2801477
1874539
444860
889953
444860
445686
268746
948071
2686246
2268578
948071
230158
754042
2041493
444860
444860
2801477
1815521
444860
756275
754042
2491321
230158
909297
2801477
2686266
1283077
268746
2023996
1586715
1883369
948071
948071
1283077
444860
2545435
754067
948071
754042
444860
2801477
444860
268746
268746
753084
2801477
2801477
573171
555387
2041212
889951
2801477
756275
2023996
2023996
1542477
1168478
230158
754042
1883368
1493511
2107707
2686246
754042
1874539
455364
444860
2686266
446529
1874539
1883368
1536592
444860
251749
908819
2079289
238854
1026955
1542477
2301714
10689
444860
446529
2741076
2740801
754042
2686246
446529
753084
230158
444860
455364
238854
444860
2686266
2801477
1278479
1874539
889951
2301529
268746
2491321
1051675
1273711
1557033
1874539
1273711
2801477
1283076
2801477
1332145
880159
455364
251749
753085
2023996
2023996
444860
444860
948071
1874539
251749
230158
2801477
1874539
889951
756276
1815522
1357423
2023996
1283076
238854
889953
753084
889953
242527
1557033
268746
1283077
2562175
445683
2510464
238854
1874539
2801477
1557033
1874539
2801477
2268578
1874539
444860
445686
1815521
444860
1572743
889953
2801477
2023996
444860
2023996
445686
1874539
1536592
238854
2801477
948071
1557033
444860
444860
444875
2023996
230158
754042
1874539
2023996
169683
1874539
889951
2801477
753085
444860
446529
238854
2301529
194699
2268578
2801477
1883368
2686247
754042
2801477
444860
1141136
444860
1557035
754042
756275
2041493
1542477
268746
444860
2023996
2023996
889953
2801477
1168478
444860
444860
1357423
444860
1283077
151528
2023996
2023996
446529
1586713
194699
908819
2023996
908819
2023996
444860
2023996
444860
1084719
455364
1883369
205879
1283076
754042
455364
908819
445686
754042
2023996
1883368
889953
444860
1883368
754042
1283077
2023996
1084719
1340810
194699
756275
2510464
908819
444860
455364
1586715
445686
2301529
2023996
444860
1229760
753085
1168478
455364
754042
908819
444860
889953
444860
2491321
444860
908819
2023996
2041493
2801477
1586715
1586714
455364
754042
444860
444860
444860
754042
2023996
444860
444860
1168478
1493509
444860
445688
948071
2023996
1874539
1874539
2686246
1874539
444860
2023996
754042
889953
2801477
753085
2268578
205879
2801477
2491321
889953
444860
1283076
2801477
2041344
2686247
1493511
444860
1204543
1391659
238854
455364
889951
1542477
444860
754042
444860
1168478
2023992
444860
1449437
948071
1874539
2801477
909297
444860
2268578
2023996
445688
2801477
1573458
444860
238854
444860
754042
1880590
2801477
1883369
2801477
444860
948071
948071
754042
1493511
455364
948071
2023992
948071
1883369
1168478
2041344
2023996
2686279
445688
455364
455364
2041493
251749
754042
445686
2716352
445688
948071
445686
1814287
444860
1874539
268746
251749
2801477
2100130
444860
1168478
1874539
444860
753085
444860
444860
948071
2801477
444860
1493513
948071
536466
948071
754048
2801477
2686266
2015853
444860
238854
268746
948071
2023996
2686266
2686266
2801477
754042
1586715
948071
948071
2801477
2023996
2716351
2686266
948071
455364
2801477
268746
455364
908819
444860
268746
2801477
455364
908819
455364
444860
268746
444860
444860
2041493
948071
1327981
948071
754042
948071
555387
546805
445696
2686246
444860
948071
908819
948071
444860
2686251
444860
2268578
908819
908819
2686266
753084
444860
444860
754042
444860
445683
444860
444860
2801477
2725629
2268578
445686
238854
2268578
205869
948071
1493513
2686266
1983572
2024264
754042
948071
2041493
948071
444860
1883365
754048
754042
1283077
1168478
948071
889951
889951
444860
948071
754042
445686
754042
754042
948071
444860
754059
1084719
1586714
948071
754059
255131
2023996
546805
444860
889951
2801477
889951
238854
444860
444860
455364
948071
754042
2801477
1168478
948071
754042
948071
754042
2023996
251749
2023996
1327981
1542477
1536592
948071
2100130
251749
756275
1168478
1392231
573171
948071
546805
754042
2023996
754059
444860
948071
238854
2801477
455364
2801477
444860
2801477
754048
1168478
2107709
889951
194699
1283076
889951
948071
573171
238854
754042
445683
1357423
546805
2023996
1536592
889951
1542477
2024264
2740802
948071
1880590
1283077
444860
948071
754059
1335230
444860
754042
1573458
2801477
1357423
1327982
754042
455364
754059
444860
889951
1168478
1127518
445686
1542477
268746
889953
2491321
889951
238854
1084719
2686251
573171
2801477
1536592
444860
444860
754042
444860
1283076
444860
2801477
753085
889953
889951
1586714
1283076
1557034
2801477
1493511
2590946
2740801
754042
1325953
2740802
444860
1493511
444860
10754
1283076
2686245
2041344
687803
754059
889953
444860
573171
2041493
1493511
268746
573171
445686
2767576
2023996
445686
444860
1567484
1536592
2023996
268746
2100130
2301714
1340810
756275
573171
444860
948071
444860
889951
2079285
889953
2268578
445683
238854
444860
2562175
251749
1965368
2801477
2801477
444860
2301529
2801477
2041344
2740802
754042
2801477
590739
2801477
444860
444860
1168478
455364
169683
2079426
754048
455364
2801477
1357423
754042
251749
444860
889951
2801477
2023996
1542477
444860
169683
1283076
2686246
2801477
573171
2741076
2686245
889953
754042
1283077
444860
1883369
2801477
238854
268747
754042
2801477
455364
908819
2023996
2686246
908819
455364
2686246
2041493
444860
1542477
2723758
169683
2545435
756277
2052742
1536592
2686246
1220601
2686247
1283076
754042
756275
444860
2801477
693272
2801477
1229753
754059
444860
2023996
1449437
268746
251749
536466
444860
948071
238854
1340810
444860
194699
753084
2801477
754037
444860
2023996
1283077
445688
445686
2801477
754042
2801477
444860
444860
1283077
2023996
754041
2801477
251749
693272
754042
444860
536453
444860
2686246
238854
1586715
889953
455364
2801477
279280
2801477
2723758
445686
2070026
2301529
756275
1220601
444860
1883368
908819
446529
693272
908819
948071
268746
1542477
687803
1283077
2801477
1283076
2052742
445686
279280
2801477
2801477
1357423
536444
444860
2023996
238854
754041
251749
2100130
1586715
948071
445686
444860
754059
455364
555387
2801477
754042
2015873
444860
1283077
2801477
445686
1916124
889953
1883369
2801477
2041347
2268578
2686245
444860
268746
1883369
1493511
444860
382359
444860
2686245
268746
1168478
2023996
1493511
444860
2740802
1883369
2801477
455364
444860
2801477
238854
455364
268746
2801477
2801477
2740802
1109714
2686251
444860
2488789
1283076
2686251
2801477
2801477
1493513
2268578
251749
2686251
754042
455364
2268578
2023996
2686245
753084
2801477
444860
754042
444860
2301529
2023996
1916124
2023996
1079999
555387
322019
268746
1541883
2023996
2023996
1168478
444860
1026955
444860
444860
546805
1168478
2801477
251749
889953
1586713
2301529
1168478
382359
754042
444860
2686251
2023996
1168479
889953
444860
268746
2041493
268746
445688
444860
444860
10506
2023996
2010329
1168478
2023996
1913591
908819
251749
444860
2023996
889953
948071
444862
268746
1493511
948071
268746
444860
1392231
2023996
2686266
1815521
2023996
444862
2801477
444860
2175605
1542477
444860
2801477
2023996
2801477
2801477
1557033
756275
754039
2686251
251749
2716351
1557034
948071
756275
948071
1542477
1486472
136084
1883368
2601643
455364
889953
444862
238854
1283076
948071
1815521
1542477
2023996
2696339
948071
754042
2023996
2070026
445686
1084719
444860
1033977
1880590
2801477
444860
2268578
445686
444860
268746
753084
2041493
2268578
889953
1133292
238854
908819
1557033
446529
889953
455364
444862
2023996
455364
889953
2686273
1883368
1536592
869662
948071
2023996
754042
194699
754042
444860
2801477
268746
1586714
279280
948071
1542477
754037
205879
444876
2268578
2801477
948071
2023996
753085
455364
2801477
948071
2023996
2301529
889951
444860
444860
1278485
1392231
1493511
2801477
948071
2801477
2686246
1168478
948071
756275
2023996
1874539
948071
754048
160796
2023996
948071
444860
908819
238854
1340810
754042
2545435
948071
948071
948071
445688
1283076
2023996
889953
444860
908819
948071
546805
908819
908819
455364
1493511
754042
948071
948071
2041493
2801477
444860
696472
1493513
268746
205869
268747
1493511
268747
2686247
444860
444860
1883365
1883368
889953
948071
2743801
251749
948071
444860
754037
2023996
754042
948071
948071
455364
2023996
754048
1033977
908819
754042
455364
908819
268746
2268578
444860
948071
446529
948071
347327
754048
754048
2023996
2801477
347327
455364
2023996
2801477
1572745
1340810
948071
948071
573171
546805
754059
754042
251749
1283077
238854
1278479
2023996
546805
573171
2023996
1493511
754042
1278402
1168478
1445714
2023996
1542477
2488788
1283076
1392231
1493511
2301529
2023996
238854
445686
2801477
446529
2023996
1536592
754042
1034128
908819
754059
444860
2301529
444860
455364
2301529
2301529
1486472
444860
2301529
1542477
754042
2686246
268746
238854
444860
2268578
2686251
444860
444860
444860
2301529
455364
546805
1197951
444860
455364
1493514
889953
754059
908819
948071
1278402
251749
2801477
948071
1278479
455364
2801477
461711
889953
2023996
2301529
251749
444860
2023996
754059
2686246
251749
2301529
444860
445686
754042
2023996
2801477
573171
205869
889953
444860
2530116
948071
444860
1335230
444860
889951
754059
2686246
2565501
169683
1357714
929835
268746
455364
1542477
444860
2801477
2023996
2801477
1874539
1536592
2686246
445686
205879
754042
169683
1536592
1586713
948870
2772074
948071
1168479
169683
2041344
294631
1168478
238854
2023996
1493511
756275
169683
2801477
444860
1542477
169683
268746
1883369
2801477
1586714
909297
2268578
754042
169683
445684
2801477
2801477
1542477
754042
444860
1283076
2772074
753084
169683
869662
754042
1327981
2023996
1168478
1168478
238854
1542477
169683
347327
268746
444860
444860
35241
1283077
2268578
169683
445686
1874539
445686
35241
2801477
169683
444860
1535247
2268578
445688
2023996
2023996
2023996
889953
2686246
445686
242527
251749
1542477
869662
1983572
169683
2100130
754048
1493511
169683
2686246
1168478
948071
948071
444860
948071
948071
701257
1536592
1283077
948071
948071
754042
294631
194699
2023996
238854
948071
948071
756275
444860
2740802
908819
754042
2801477
1536592
1283076
2301561
1573458
455364
444860
2686246
536474
2801477
948071
948071
2686246
948071
948071
948071
2301529
948071
948071
948071
948071
948071
455364
948071
948071
948071
908819
2510464
948071
445686
2023996
948071
445688
2100130
948071
948071
238854
948071
1567484
2686246
948071
948071
251749
445686
948071
2801477
555387
948071
754042
948071
1557033
2801477
444860
701257
1283077
2740802
251749
444860
444859
948071
948071
948071
2053723
948071
948071
948071
455364
948071
2801477
948071
251749
2686246
948071
948071
1883369
948071
2686266
1542477
948071
762660
1557033
948071
753085
948071
2079426
444860
2801477
2182408
908819
948071
1340812
948071
889953
444860
238854
2023996
2801477
1493511
294631
948071
445686
2023996
889953
2801477
889953
2023996
444860
2801477
444860
2686246
268746
238854
754042
1340812
2801477
444860
2023996
444860
536466
444860
1542477
2801477
1283077
948071
445686
2268578
2100130
444860
445686
444860
444860
2023996
1969841
1168478
444860
2041344
2716351
444860
1586715
753085
444860
1340812
2801477
2801477
444860
238854
754042
444860
2023996
2686246
444860
455364
268746
2801477
2023996
251749
444860
268746
444860
1273711
1542477
1392231
889953
444860
444860
753084
268746
1113547
251749
2801477
2510464
2801477
2023996
754042
445688
444860
2801477
754042
2029657
2801477
2023996
444860
2023996
665032
2801477
2801477
444860
238854
2801477
2723758
2041344
2268578
2801477
268746
2801477
889953
205879
1283076
2041493
2041344
1283077
1883365
2023996
948071
1586714
444860
1586715
2686246
908819
2801477
909297
2023996
1084719
1392231
444860
2562175
446529
446529
754042
2023996
2801477
445683
444860
753084
268746
1573458
754039
2491321
2740801
2023996
2686246
1278479
455364
238854
444860
2801477
948071
1327981
444860
546805
2801477
1340810
2740802
2740801
1283076
2301529
754067
889953
444860
455364
889951
2100130
2686245
2741076
1874539
1208587
889953
754042
754042
573174
1327980
444860
2070026
455364
1084719
754042
444860
2801477
889953
1883368
444860
948071
908819
573174
444860
268746
2801477
754039
753085
444860
908819
2740801
573174
444860
2801477
238854
1586714
2023996
889951
444860
444860
115987
455364
2686246
444860
573174
2510464
444861
444860
444860
2488789
1573458
2740801
2686246
908819
455364
1557033
2686246
2023996
754042
2686245
444860
2801477
889953
948071
445686
2801477
1542477
2023996
2100130
1586714
2023996
2801477
2023996
948071
869662
2041493
268746
2070026
444860
1883369
2041493
2041493
444860
889953
1969841
455364
948071
948071
2801477
444860
444860
908819
2686266
445696
268746
754042
2041493
754042
948071
1883369
238854
2041493
1542477
2801477
444878
1283076
455364
445688
2041493
754042
753084
2100130
2801477
455364
948071
444860
2686246
444860
445688
908819
444860
2023996
2801477
1283077
444860
948071
754042
238854
948071
753085
2801477
251749
1883369
166122
889951
908819
2686246
2590946
444860
2686245
2801477
1197951
2801477
2801477
1325731
2023996
444860
444860
908819
1542477
889953
1542477
2716352
754037
444860
2801477
948071
908819
1340810
754042
908819
1542477
573171
2801477
251749
2801477
2801477
2023996
2801477
2686246
889953
2801477
2100130
469660
444860
2301529
2023996
2070026
2801477
908819
2801477
2801477
444860
2801477
444860
2023996
445686
445688
1283077
948071
444860
1493511
2801477
2100130
2686251
238854
908819
2023996
2801477
948071
238854
2491321
1536592
444860
889953
754042
335797
444860
2023996
2801477
2491321
909297
2079426
1536592
251749
1449437
1327982
908819
2053653
136084
2041493
1168478
889953
889951
2023996
754042
2801477
2686251
2686247
2801477
889951
2801477
194699
889951
2041493
2023996
169683
268746
2801477
2723758
2801477
2801477
2801477
869724
889951
1880590
2100130
444860
444860
205869
294631
2801477
889951
455364
1815968
1168478
2041344
445686
889951
889953
1340812
444860
1557034
238854
2801477
445688
444860
908819
1883369
455364
1283076
2801477
754042
1283079
948071
2023996
2268578
455364
948071
279280
2079426
455364
2023996
1880590
455364
455364
1283079
2041493
455364
1168479
444860
1340812
1815521
444860
455364
948071
2023996
1530085
2686246
889953
238854
444860
2041344
2801477
242527
444860
2555548
948071
673837
753084
1542477
268746
948071
1283079
444860
2686245
194699
2023996
2041344
2079426
2801477
268746
754048
455364
2801477
2686266
1283079
908819
2686266
754042
1536592
444860
909297
1536592
1557033
754042
1542477
2510464
444860
889953
444860
889953
2010329
2023996
2801477
754040
444860
908819
444860
2023996
1283076
242527
205879
455364
948071
2801477
754048
2023996
455364
2686266
2801477
909297
754042
948071
2801477
1283077
1493508
2023996
1327981
1278402
2041493
455364
444860
2023996
251749
1197951
929835
2801477
2023996
2023996
444860
238854
2801477
444860
1357423
2801477
1283076
2100130
2023996
754042
2801477
1340812
2801477
2510464
444860
948071
1168478
322019
444860
948071
2023996
1920311
693272
2041493
2801477
1586715
1542477
2743781
2023996
1883368
1283077
445686
444860
1493513
1084719
268746
908819
444860
1573458
2052742
445688
1542477
2510464
1821560
753084
1168478
909297
2686251
889953
2041493
446529
2100130
1168478
2686251
444860
536474
455364
2801477
444860
151539
2070026
908819
2801477
268746
889953
2743781
1913591
2801477
455364
1283077
444860
2801477
1278485
754042
908819
2686251
2023996
2100130
1536592
444860
2801477
1493513
445688
445688
444860
2686246
2801477
754042
909297
754042
1327985
1283076
2801477
2801477
1527512
1278479
1283076
1542477
1557033
2801477
2545435
2723758
2801477
2686251
1141136
1283077
455364
444860
1542477
2686246
2801477
1883368
444860
444860
2740801
444860
2801477
2023996
756275
1283077
2510464
1493511
205879
2723758
754042
546805
2740801
446529
1586715
756276
1815521
1327985
444860
2801477
2023996
2301529
1283077
909297
445686
455364
2801477
455364
2801477
948071
2801477
455364
2801477
268746
1283077
2801477
754039
455364
1327985
2801477
2686246
523909
754042
2023996
413066
413066
536466
268746
1137745
1880590
546805
444860
444860
2801477
2686251
444860
546805
2023996
1883368
251749
445686
754042
2801477
2023996
1572745
754042
444860
268746
445696
546805
1079998
444860
444875
936152
445696
1079998
1815521
2301529
1815521
754042
455364
1357423
889953
753084
889953
1493511
1557035
1493511
413066
335797
2801477
2686246
2686246
889951
1283077
948071
1278479
948071
948071
2801477
2023996
347327
444860
948071
948071
909297
754048
2686266
948071
948071
555387
2268578
1034128
948071
2801477
948071
444875
2801477
1283079
455364
1557035
2023996
948071
889951
2545435
1033977
2801477
754048
1168478
2686246
754042
2801477
754042
1283076
948071
444860
2268578
756276
948071
268746
268746
1536592
948071
948071
1357423
754042
2023996
2686251
2686246
1536592
889951
1536592
444860
2023996
889951
2772078
756275
2801477
1084719
2801477
753085
948071
754042
754042
455364
1273711
455364
948071
948071
948071
889951
1187128
444861
2801477
2686247
948071
1079998
2023996
1557033
1273711
1283077
455364
948071
889951
948071
948071
1883368
455364
2301561
347327
948071
948071
754042
948071
948071
1034128
889951
1493511
1168478
754042
889951
1883368
948071
1557033
455364
2801477
444860
2801477
1969841
948071
948071
2801477
444860
2801477
754042
444860
948071
444860
1168478
1536592
948071
2801477
948071
948071
948071
889951
251749
2023996
2801477
354260
2023996
1536592
444861
948071
1392231
755272
445686
238854
2301621
1168478
1168478
455364
1573458
444860
455364
2023996
444860
2801477
2801477
2801477
444860
1536592
2023996
444860
444860
2801477
444860
1283076
889953
2686246
1880590
2686251
2801477
2801477
205869
1883368
1168478
948071
2686246
1586715
2023996
2801477
754042
1883369
268746
1536592
1874539
756275
444860
2801477
445686
2801477
2023996
2801477
2723758
1493511
2801477
1283076
2023996
445696
755272
2212563
908819
445686
1137745
444860
446529
2801477
1586715
2601643
455364
444860
446529
754042
908819
1391428
1493514
445686
909297
948071
2801477
948071
2801477
455364
1536592
948071
909297
2801477
2079426
347327
2801477
2801477
347327
2801477
2686246
2801477
1883368
2023996
2023996
2686246
2557579
1141136
2182408
948071
948071
908819
889953
1283076
455364
908819
1493514
2801477
347327
908819
2023996
908819
1127518
2023992
2510464
948071
948071
1557033
347327
889953
2023996
2801477
2801477
754059
948071
908819
347327
1168478
948071
2801477
948071
909297
1542477
444860
1493513
251749
268746
1883369
347327
2801477
754042
2686245
444860
2268578
2801477
347327
2545435
455364
347327
2686246
347327
754042
1542477
908819
444860
2801477
444860
2801477
2801477
444860
2801477
347327
2801477
754042
444860
2023996
1141136
2801477
2801477
444860
948071
1283076
2686245
2801477
2801477
2686246
948071
908819
2801477
948071
2741074
1557034
399781
948071
347327
347327
2801477
1283077
2686245
2801477
347327
2801477
1283077
908819
889953
2801477
444878
1815521
2723758
908819
908819
948071
2801477
546805
347327
948071
2023996
948071
1357714
2772074
2801477
908819
1073767
889953
2740801
948071
948071
444860
455364
754042
347327
1493509
948071
1493509
1335230
948071
347327
908819
1283076
444860
1883366
948071
948071
1493514
1542477
444860
2686242
1283077
444860
948071
2801477
1168478
889953
2175295
2801477
1883369
1327990
1283076
444860
2801477
908819
908819
2801477
948071
2562175
2801477
2716351
2801477
347327
2801477
455364
1883368
948071
693272
948071
909297
2801477
347327
347327
2041493
948071
2801477
2801477
2686242
948071
1283078
2801477
347327
347327
1283076
753084
948071
2801477
2023996
1127518
347327
2801477
1283077
2801477
948071
2801477
136084
1269028
948071
347327
2801477
1283077
268746
2801477
908819
2743909
2801477
347327
2801477
347327
2801477
251749
444860
948071
2686266
2801477
1325731
251749
347327
1127518
238854
347327
347327
1283076
756276
2801477
948071
754059
347327
347327
1493509
754067
2801477
2801477
2801477
948071
948071
1141136
382359
444860
765765
2686251
948071
238854
754048
1197951
444878
444860
754042
908819
2023996
251749
909297
1168478
2772078
2686266
35241
754042
444860
1493511
2801477
268746
2801477
1332145
446529
1493511
2801477
889953
1880590
455364
754042
2801477
908819
35241
444860
1168478
2801477
948071
455364
948071
445686
754039
2023996
444860
2115967
2801477
2801477
445686
2801477
2801477
444860
2268578
1883369
909297
444860
698487
754037
2686251
2023996
444860
1557033
444860
1493511
1586714
754042
238854
2023996
1283077
2301529
1883369
2023996
2801477
1536592
2801477
909297
2023996
2099637
1883365
1572743
1874539
444860
444860
444860
238854
444860
2301538
754048
1874539
1168478
1815968
268746
1883366
889951
1283076
1168478
2023996
2767570
2041344
889951
2268578
2801477
1195085
2100130
2801477
444860
536453
1874539
2250335
1283076
889953
444860
1586713
2801477
194699
889953
2301528
1168478
268746
1168479
2801477
994601
1493511
1283077
2801477
889951
251749
756275
908819
1026955
2562175
238854
756276
1883366
169683
169683
1874539
445685
444860
948071
2023996
445686
908819
2801477
948071
1815522
693272
2801477
754048
909297
1168478
754042
238854
754048
2686266
2099637
2023996
754042
1195085
2023996
455364
2801477
2301538
2801477
445686
2801477
2301529
2686266
2099637
251749
1542477
176652
1557033
268746
2023996
1572743
756275
444860
1033977
948071
536474
455364
889951
444860
2301538
753084
889951
1883371
1278479
2801477
2099637
753084
2801477
1536592
1283077
2545435
2801477
251749
869662
2801477
908819
1557034
2023996
889951
194699
1541883
889953
1283077
455364
2801477
1283077
2301529
1283076
1883368
869724
2801477
205879
1084719
2023996
573171
2801477
445686
445688
909297
2029657
1586713
2801477
444860
2023996
444860
1127518
455364
1874539
2801477
455364
754042
1874539
444860
444860
889953
2801477
268746
2023996
2801477
444860
2510464
2023996
455364
2023996
2801477
948071
1542477
444860
756277
2041344
754042
444860
765765
908819
2743826
1542477
696472
948071
2801477
2801477
2041493
2801477
2023996
455364
205879
2801477
444860
2801477
754042
1883368
2801477
2510464
444860
2023996
2686266
444860
1150991
238854
2801477
238854
1493511
2107707
1573458
455364
2023996
1127518
238854
455364
251749
455364
1283076
2801477
2801477
1327981
1883369
2801477
444860
1883368
1168478
756282
444860
753084
2801477
444860
446529
382359
2023996
2801477
444860
455364
2801477
455364
889956
1883368
754059
1168478
2100130
754042
2491321
444860
1536592
1168479
1880590
2100130
444860
2023996
754037
444860
2686251
908819
444860
213775
1357423
455364
754042
2686246
2023996
2023996
889951
1283076
2268578
1542477
251749
1283077
1283076
445686
1283076
1168479
251749
279280
2315531
444860
1542477
889953
936152
1283076
753085
444860
2801477
1542477
444860
2686246
1283076
444860
1168479
444860
948071
754042
2801477
1283077
1874539
2686245
2023996
1283076
2740801
444860
205879
444860
1283077
444860
445686
444860
2023996
2801477
444860
444860
455364
455364
444860
1168479
2801477
251749
1542477
2023996
445688
1136535
2801477
438482
1874539
2268578
948071
2301529
1136535
2588518
754039
2686246
445688
1137745
2740801
2801477
444860
1141135
1557033
2740801
2023996
1136535
2301529
2301529
444860
455364
1874539
754042
455364
2023996
2801477
658401
445686
445688
1527771
908819
754041
444860
2023996
1917232
1137745
2686251
948870
455364
1557033
2023996
2740801
1283076
2268578
2023996
2686247
908819
2801477
908819
348137
1874539
446529
1136535
908819
1283077
546805
889953
908819
1541823
2686245
2023996
1357714
455364
1136535
1168479
2801477
1026955
2029657
2743801
1542477
2015873
444860
238854
754041
1136535
2070026
438482
1283077
444860
444860
546805
889951
2801477
444860
1136535
1536592
1917232
455364
1573458
1340810
754042
2023996
444860
2801477
880161
251749
2301529
1168479
2801477
238854
1283077
1542477
2301529
268746
754048
948071
2801477
2023996
948071
2100130
2741073
444860
1586714
2801477
1542477
1283077
1392231
2686246
1883368
948071
948071
2801477
948071
948071
1332145
908819
444860
2079426
2041493
169683
1449437
1557033
2801477
455364
1283076
948071
948071
444860
1357715
238854
936152
251749
1542477
444860
753085
948071
948071
169683
455364
2023996
1519788
205879
756282
2801477
445686
2491321
1542477
2041344
1883369
205869
1542477
908819
1542477
2686273
754067
444860
948071
908819
238854
444860
1137745
2023996
754048
1542477
2023996
455364
2801477
948071
2268578
238854
2023996
948071
1542477
455364
754042
753084
1414739
2801477
756276
2023996
455364
1493511
399781
445684
1493511
948071
2053723
444860
753084
1327981
908819
948071
1527524
2801477
754048
908819
2301528
1965482
444860
2023996
238854
1283076
1557033
1874539
1283077
2589658
1493511
2588099
889953
908819
908819
1815522
1542477
251749
754042
754048
1883369
1815521
889953
2100130
444860
754042
754042
754048
1168478
455364
251749
444860
444860
754042
2686266
444860
2023996
1283077
869724
2801477
754048
444860
2801477
2023996
1357423
754042
1586715
2801477
908819
1325953
948071
2023996
889953
2801477
2801477
444860
1357423
455364
2801477
869662
754037
444860
1542477
1486472
444860
2023996
2589658
2023996
2801477
1874539
754042
536466
2801477
447909
2023996
2023996
1883368
1168595
754037
444860
268746
2801477
2079426
444860
2801477
1557033
1327983
1327976
1557033
444860
908819
754042
1586715
444860
908819
251749
444860
2100130
1283076
1540097
754059
455364
754059
444860
754059
2023996
909297
1874539
754059
2301529
238854
2015873
268746
754059
754059
2041212
2686266
2588132
444860
2686246
754059
754059
754059
754059
754059
754048
238854
2686266
2015873
1084719
2023996
444860
1874539
754059
2023996
1033977
1486472
2023996
444860
444860
754059
546805
444875
948071
754059
754059
2023996
1283077
948071
754059
444860
909297
1168479
2024264
754059
2268578
1175654
2023996
756277
455364
1536592
948071
754042
1927024
754059
909297
2801477
754042
754059
2100130
2704031
908819
754042
754059
754059
754042
251749
908819
444860
754059
754059
754059
1073767
2801477
2023996
2801477
2491321
1042122
754059
2301529
347327
445683
444860
536466
444860
754059
1084719
1527771
2023996
754059
754059
2023996
2740802
444860
908819
754059
754042
908819
754059
754059
238854
948071
754059
754059
1542477
754059
444860
754059
754042
2740804
754059
1113547
251749
754059
754059
1327037
753085
1557033
2545435
754059
754059
754059
2772074
2801477
1493511
2801477
880159
754059
754059
948071
238854
444860
754059
754059
754059
2015873
1542477
444860
2801477
268746
2686246
948071
251749
251749
754059
754059
754059
2801477
2801477
2801477
2041344
754042
455364
948071
444859
754059
455364
889953
754048
754048
948071
754059
444860
2023996
754048
754059
936152
446529
28874
2801477
2801477
446529
2023996
2301538
444860
2023996
1141136
2023996
754048
889953
2801477
251749
2801477
2268578
756275
1572743
455364
1493509
756276
1391181
2801477
445688
444860
444860
2023996
1026955
2812854
2023996
444860
754042
1168478
2801477
205869
2801477
455364
242527
2023996
2023996
754042
444860
1542477
444860
909297
1883365
455364
2023996
1486472
2801477
1880590
1283077
2716351
445692
948071
444860
1168479
251749
446529
2023996
754042
753084
1542477
2801477
2070026
1557033
2743781
445688
444860
1235689
2741073
1493511
2023996
908819
2801477
2801477
268746
754042
948071
446529
994601
268746
948071
908819
444860
445688
2801477
2686266
2801477
908819
2801477
754042
251749
2686246
909297
2801477
1493511
268746
889953
2023996
2801477
1051675
2301529
948071
1084719
1283076
2301529
1557035
455364
2301529
1815582
909297
2301529
948071
889953
444860
2283026
444860
1073767
756275
1493514
444860
444860
1477404
444860
251749
444860
2801477
1883368
1542477
908819
889951
2023996
2801477
2301529
1493511
444860
446529
948071
2301529
1880590
948071
444860
2024264
1883369
1815521
753084
2801477
1557033
2301529
268746
1168479
2301529
2491321
2023996
1084719
444860
2023996
1874539
2023996
948071
1079999
2801477
889951
2070026
2023996
2484217
444860
268746
10506
2023996
754042
2023996
2268578
2023996
455364
2301529
444860
948071
444860
2023996
2023996
2801477
909297
754048
948071
136084
242527
1278479
1278479
1327972
444860
1073767
2686245
268746
1283077
1084719
2268578
1536592
2801477
1327971
754042
909297
1052673
2686266
2491321
455364
948071
889953
2301529
2023996
444860
909297
908819
445686
546183
1278479
948071
2015860
2801477
244310
2099637
2686251
1965482
1073767
908819
2301529
2686245
908819
546805
754042
755272
1590550
445686
2010329
2801477
2801477
2010329
546805
244310
2268578
754048
1590550
754042
2801477
1542477
2052742
2801477
444860
2801477
948071
2023996
1197951
536466
294631
238854
444860
444860
1880590
2023996
1283076
2023996
2801477
642926
754039
444860
251749
268746
1815521
1883368
1542477
754042
2801477
696472
1340810
908819
268746
455364
446529
444860
444860
2100130
1969841
251749
2801477
251749
238854
536474
444860
889953
2801477
2023996
455364
251749
2801477
2716351
2023996
445683
1883367
251749
1815521
444860
2801477
889953
2023996
889953
1026955
753084
2686251
444860
1493509
2023996
1880590
908819
1493509
2041344
754042
889953
455364
1137745
908819
2686251
908819
908819
1868844
754042
444860
72201
754042
908819
1357423
536466
908819
908819
2743801
444860
445686
1536592
2801477
1493511
2743801
444860
756275
1283077
2801477
2491321
1283076
1542477
455364
1026955
1392231
444860
1283077
2686251
169683
1327971
754042
238854
2801477
948071
889953
1076255
169683
2801477
908819
754042
294631
880159
909297
2740801
169683
880159
1206110
908819
444860
753084
2686242
908819
444878
1883369
889953
1084719
2801477
754048
880159
948071
2023996
948071
169683
2686266
340435
1542477
2723758
340435
2041344
169683
268746
908819
445688
445686
1283077
754042
948071
444859
230158
948071
909297
1283076
2510464
1329402
2023996
2023996
169683
251749
2023996
908819
2801477
880159
880159
909297
268746
948071
1283076
908819
2483719
455364
455364
889953
948071
948071
1141136
948071
444860
444860
756275
1332145
1883366
444860
2562192
889953
2023996
880159
2023996
268746
948071
2510506
230158
948071
347327
1168549
1283077
2023996
294631
546805
1168478
455364
169683
948071
169683
444859
1079998
1874539
880159
2801477
2023996
444860
2023996
2250320
889951
169683
2023996
1147094
212035
2801477
753084
347327
455364
908819
1357423
1874539
444860
194699
251749
2015873
908819
2023996
754048
880161
2100130
1815521
445686
294631
445686
194699
2023996
169683
444859
2023996
444860
279280
169683
880159
2562192
1883368
169683
754048
2801477
1557035
445688
1052673
238854
2801477
169683
444860
670252
948071
169683
46021
444878
169683
909297
948071
264729
169683
1340810
1567014
1542477
2023996
948071
2023996
169683
2100130
948071
446529
1586715
948071
948071
205869
169683
753084
546805
2023996
169683
169683
880159
169683
936152
444859
948071
1536592
754042
251749
340435
444860
2740801
2801477
948071
908819
169683
1141136
1557035
2801477
948071
948071
268746
2023996
948071
1883368
169683
169683
948071
444860
1586714
169683
2686242
455364
2023996
1883366
880159
1283077
753084
2801477
908819
1815521
948071
754067
889951
2023996
948071
2743826
2767570
169683
754048
455364
908819
1557033
242527
2801477
948071
444859
455364
908819
455364
1052673
2023996
1874539
251749
2023996
444860
754042
2023996
1874539
444860
1332145
2723758
908819
251749
455364
444860
2023996
889953
1557033
754042
1555202
1555202
754042
908819
455364
2801477
756275
1542477
754042
1883365
268746
2268578
444860
1493509
444860
1141136
2023996
889951
2301528
445686
2023996
754048
908819
908819
2801477
889953
2801477
2801477
2023996
1573458
1586715
1874539
908819
1874539
444860
2023996
908819
444875
1283076
1557033
1796997
754042
2801477
1883368
444860
754039
754042
1536592
2041344
444860
445696
754048
2801477
2023996
444860
2023996
1557035
754042
445686
444860
754048
869662
2268578
755272
2743781
444860
1874539
754037
455364
2801477
447909
2023996
444860
444860
2023996
2801477
2801477
536466
444860
948071
1278479
948071
889951
753085
546805
1278479
948071
1983572
1493514
948071
869662
455364
948071
948071
2023996
1493513
948071
444860
889953
948071
1278479
194699
194699
908819
1493508
1084719
948071
2023996
948071
754042
2023996
948071
445688
1278479
948071
948071
1052673
2010329
948071
908819
753085
268746
1278479
1278479
1557033
555387
2023996
1168479
2801477
251749
948071
2023996
1557035
1033977
753085
1084719
1278479
1965482
268746
455364
1278479
909297
1278479
2686245
444860
1493514
1493511
455364
2801477
1493509
2100130
2053653
1357423
909297
