221915
1028375
221915
1028375
1239385
221915
221915
221915
292029
221915
221915
1195079
1586714
221915
221915
1007127
221915
221915
221915
221915
292029
221915
221915
221915
1239385
221915
1262512
221915
221915
221915
1262512
221915
221915
1572703
221915
292029
292029
221915
221915
1262512
221915
221915
1262512
1262512
221915
221915
1007127
292029
292029
221915
221915
221915
292029
292029
221915
221915
221915
221915
221915
221915
221915
1007127
292029
221915
292029
221915
221915
760530
221915
221915
221915
221915
221915
221915
221915
221915
1262512
221915
1239385
760530
221915
221915
292029
221915
221915
221915
10310
221915
1007127
221915
221915
221915
221915
221915
221915
221915
1526408
221915
221915
1007127
221915
221915
292029
292029
221915
221915
221915
1239385
292029
221915
221915
292029
1262512
1524910
221915
221915
221915
221915
292029
221915
221915
221915
1195079
292029
1262512
221915
292029
221915
221915
292029
221915
221915
292029
221915
307898
221915
292029
292029
221915
221915
1883369
221915
221915
760530
1239385
1195079
221915
292029
292029
221915
221915
221915
221915
221915
221915
221915
221915
221915
221915
221915
307898
221915
292029
221915
221915
292029
221915
221915
221915
221915
221915
221915
221915
221915
221915
1526408
221915
221915
221915
760530
221915
221915
221915
221915
1526408
221915
221915
221915
221915
221915
221915
221915
221915
221915
292029
221915
1262512
1239385
221915
1239385
1195076
221915
292029
307898
221915
221915
221915
221915
1239385
1262512
292029
251749
221915
760530
221915
221915
221915
221915
221915
221915
292029
221915
292029
221915
292029
1239385
221915
221915
221915
1524910
307898
221915
292029
221915
221915
221915
221915
221915
221915
221915
1262512
292029
221915
292029
1195076
1007127
221915
221915
221915
307898
292029
221915
221915
307898
292029
1007127
221915
1239385
221915
1239385
221915
221915
221915
1028375
221915
221915
292029
221915
221915
221915
221915
221915
221915
221915
455364
292029
221915
221915
221915
221915
221915
221915
1526408
1007127
1262512
221915
292029
221915
221915
221915
221915
221915
221915
221915
1262512
221915
1262512
221915
221915
1262512
221915
221915
221915
221915
221915
221915
221915
292029
221915
221915
221915
1524910
221915
1007127
221915
292029
221915
760530
221915
221915
221915
221915
292029
221915
221915
2686251
221915
221915
221915
221915
221915
1028375
221915
221915
221915
221915
221915
221915
221915
251749
221915
221915
221915
221915
221915
292029
1239385
221915
292029
221915
221915
221915
221915
221915
221915
221915
221915
1028375
292029
292029
221915
221915
221915
760530
292029
1262512
221915
221915
221915
221915
221915
292029
221915
221915
1526408
221915
1239385
292029
221915
251749
1524910
1262512
221915
221915
292029
221915
221915
1586714
221915
221915
292029
292029
221915
1007127
221915
1586714
221915
292029
221915
1526408
221915
1262512
292029
221915
1007127
221915
760530
221915
221915
221915
292029
221915
1524910
1526408
221915
1524910
221915
221915
221915
1586714
1262512
1586714
1586714
221915
221915
1262512
1526408
1262512
1526408
760530
292029
221915
1526408
221915
292029
1586714
221915
1195079
221915
221915
221915
221915
221915
221915
1586714
1526408
221915
221915
221915
1526408
221915
221915
221915
10847
221915
221915
292029
221915
251749
1557034
221915
1195081
221915
1524910
221915
221915
1586714
251749
1195077
221915
221915
1526408
1572703
292029
760530
1586714
760530
221915
221915
251749
292029
221915
221915
1526408
1526408
1586714
221915
251749
1526408
1262512
221915
1586714
251749
307898
1195077
1007127
1572704
1586714
1262512
1955558
1557034
221915
292029
221915
1262512
2268578
1262512
1586714
1262512
292029
2801477
221915
1340810
292029
1526408
251749
292029
221915
251749
1586714
1586714
1586714
1586714
221915
251749
1815522
1526408
221915
10359
1572703
292029
292029
221915
221915
1883369
1526408
455364
1262512
2801477
1586714
221915
869724
2801477
251749
1586714
1586714
1262512
1526408
1586714
251749
251749
444860
753085
455364
2686279
1450142
2801477
2027899
2023996
251749
1815522
1586714
1586714
1586714
1586714
2801477
1262512
2801477
2686279
2801477
444860
2801477
1586714
444860
760530
251749
292029
268746
1586714
2801477
1557034
2801477
1557034
1586714
455364
755272
455364
2801477
1586714
2268578
2027899
2027899
2027899
2801477
444860
2686246
1493509
2268578
2686246
2027899
1557034
2801477
1586714
1278479
2686279
2801477
753085
1278479
221915
1557034
2027899
1557034
2801477
2686279
2686246
238854
251749
44088
1557034
1557034
2100130
444860
1883367
2686246
1557034
251749
1557034
1524910
2686246
2686279
1557034
1557034
2027899
2099637
754042
1586714
1586714
2801477
2686246
2023996
2686279
1557034
2686246
1557034
2686246
1557034
2686246
2686246
2801477
1586714
2801477
754042
2686246
2801477
2686246
2801477
1557034
1557034
1586714
1586714
2686246
1557034
444860
2686246
2801477
2686246
754042
1557034
2801477
2686246
1557034
2801477
2023996
2023996
2023996
2686246
1557034
1557034
1557034
2686246
2686279
2686246
2023996
1557034
2686246
2182403
455364
1586714
2686246
268746
2686246
1137745
1028375
444860
2686246
1557034
445688
1586714
1526408
2686246
2801477
2686247
2686247
1586714
2686246
2801477
2023996
2801477
2686246
2801477
2801477
754042
2686246
2686279
1278479
1283077
455364
2099637
1586714
2686246
754042
1883369
1883369
2023996
2686246
2686246
2686246
2686246
2686246
2686246
221915
1557034
1557034
1526408
2023996
2686246
444860
2510464
444860
1586714
1557034
889953
2059380
2059380
2686246
1557034
2027899
2686246
455364
2510464
754042
444860
1557034
2510464
251749
754042
1883369
1557034
2686246
2686246
251749
880159
180504
2023996
2686279
1278402
2686279
180504
1150991
2059380
1150991
180504
754042
2027899
2686246
180504
251749
2686279
1586714
2801477
444860
444860
889953
1557033
1557034
2027899
2023996
1493511
2023996
445685
2027899
1557033
2023996
2686246
2801477
2510464
238854
1586714
1557034
455364
180504
2686246
268746
251749
2801477
455364
2801477
869662
455364
1269028
2023996
251749
754042
754042
754042
1815522
294631
1883369
294631
2686246
948870
294631
1493511
268746
2023996
1586714
455364
2686246
1586714
1229753
1033977
238854
2023996
1557034
2686246
2686273
444860
2801477
2801477
444860
444860
2023996
889953
180504
948870
1557034
2023996
754042
2686273
2686246
2023996
294631
1883368
2023996
2023996
1557034
455364
2686246
754042
2686279
2027899
2686246
2801477
180504
1557034
238854
2510464
1883369
238854
444860
1557034
1150991
2801477
2686246
2801477
754038
2023996
1586714
2686246
2059380
2027899
2027899
268746
238854
2686246
1340810
2686246
1557034
2686246
2686246
1283077
1586714
2686246
238854
2686246
251749
238854
2027899
444860
455364
1229753
251749
2023996
754042
1557034
2023996
2027899
2686246
444860
268746
444860
889953
2801477
444860
251749
2801477
1474867
1283077
444860
2023996
2027899
444860
590739
2686246
2801477
1557034
2027899
1557034
1557034
2801477
2023996
1524910
2023996
2027899
2801477
2023996
754042
1557033
1557033
1557033
1557033
1557034
1557033
2686247
2027899
2268578
1557033
444860
2027899
2027899
444860
444860
2686246
2027899
1229753
2801477
1883369
2027899
693272
2686246
1493511
2027899
455364
2686246
2100130
1493511
2182403
444860
2801477
687803
2027899
455364
687803
2027899
1557034
444860
2023996
2686246
2772080
1283077
2510464
2268578
251749
573173
2562192
444860
2801477
2027899
180504
1557034
2686246
251749
1557034
2801477
754042
2027899
238854
2801477
268746
268746
2593333
294631
2027899
1586714
2686279
2027899
2027899
2027899
2027899
251749
2027899
1557034
444860
294631
2027899
754042
2268578
2027899
2686246
753084
2686246
1557034
294631
590739
444860
2686246
1883366
251749
2027899
2027899
2027899
2686246
268746
2686246
1493511
2027899
180504
2686246
445688
455364
1557034
2027899
2686246
444860
2027899
242527
754059
2027899
2027899
444860
444860
2027899
2027899
444860
2027899
180504
2686279
455364
455364
2686251
444860
2023996
1033977
2027899
908819
268746
1586714
753085
1586714
2027899
2027899
1283077
2686279
2686246
180504
1557033
760530
205877
2686279
2027899
754042
444860
754042
444860
455364
1474867
754042
2686251
2023996
2023996
180504
2686279
2027899
754042
1536592
2686279
2027899
908819
2027899
2027899
2027899
2027899
2027899
590739
2027899
2510464
2027899
2027899
2027899
2282904
1493511
2686247
756275
2562192
2686246
2801477
1557034
1883368
2510464
1340812
251749
1883369
2027899
1335230
2079426
2801477
455364
1883366
754042
1283077
753084
889951
2686246
1493511
2801477
2027899
2801477
2686246
1557034
889953
2743781
180504
760530
2099637
444860
2027899
455364
756275
444860
2599886
1814287
2027899
2027899
1557034
1814287
2099637
1542477
1586714
2686251
2099646
2027899
555387
1542477
1557034
2023996
908819
2023996
180504
1332145
180504
1283077
2510464
221915
2510464
1278479
2023996
2023996
444860
2023996
251749
268746
1283077
1283077
2027899
2023996
2686279
1814287
444860
455364
1814287
2510464
2801477
444860
2099637
455364
2099637
2099637
753085
444860
908819
169683
2801477
753085
2099637
169683
2099637
2027899
754059
693272
1392231
1557034
455364
2268578
2099637
294631
2510464
754042
2686246
1283077
2027899
2801477
2801477
1586715
2268578
2801477
2023996
455364
2510464
2686246
908819
1542477
2686246
2301556
2023996
444860
251749
2301556
2686246
268746
2678601
1536592
753084
2686246
2686246
2023996
2510464
2023996
1586715
2686246
294631
1493511
2510464
268746
1557034
251749
2027899
2801477
2510464
2801477
2027899
1557034
444860
251749
1283077
948071
2099637
238854
2099637
2301529
1814287
2099637
2027899
444860
268746
2027899
445686
2686251
2686246
238854
2686246
2023996
2686251
1278479
948071
268746
1814287
2023996
753084
2801477
1327982
1033977
1392231
754042
455364
2283015
1557033
889953
1283077
2301529
2743781
948870
1327982
1557034
2099637
2301538
2686246
2686279
1327982
2686279
444860
251749
1325731
2686251
1557034
889953
2686246
1283076
1542477
268746
2027899
1197951
251749
444860
754042
2510464
2686246
2510464
2686246
908819
2510464
2686273
2510464
2023996
455364
294631
908819
908819
908819
908819
294631
294631
754042
294631
2027899
908819
2801477
2027899
754059
2027899
2027899
2510464
1814287
908819
1814287
2301529
2740801
573174
2547425
880162
2027899
2686279
2027899
2686279
1392231
754042
1814287
2023996
230158
2801477
756275
1883368
2686279
2027899
2686279
1814287
546805
1392231
2099637
1557034
2762283
35241
1392231
1557034
908819
2027899
2801477
445686
444860
455364
1883369
2686251
2035708
754042
444860
948071
2099637
251749
1332145
889953
1586714
455364
268746
1586714
1557033
2099637
2801477
1557033
1542477
948071
948071
2508195
1883366
2510464
251749
948071
2027899
2099637
754042
908819
908819
1557033
889953
2027899
2282904
1026955
2099637
1026955
455364
1814287
251749
2686246
2686279
1033977
1392231
2547425
455364
268746
2510464
2023996
2099637
1168478
754042
2801477
908819
2301529
1814287
908819
444861
251749
2801477
2740801
1814287
1920308
754037
1392231
2027899
1814287
2023996
889953
2023996
755272
1814287
754059
908819
1557034
908819
169683
1392231
2027899
1838074
251749
455364
1883368
1814287
2686247
1883368
756275
1814287
1586715
1814287
1814287
908819
908819
889951
455364
268746
2268578
2801477
1168478
294631
908819
444860
754042
455364
1392231
1474867
2027899
2268578
455364
546805
1542477
2801477
2686246
1814287
251749
2686246
1586714
2027899
889953
2686246
1283077
444860
1920310
444860
1557034
536466
1960658
251749
180504
2108127
1960658
455364
2686251
1960658
1960658
1283076
2801477
1960658
294631
251749
2545435
446529
2740801
1960658
1960658
2027899
1557033
294631
1960658
205869
908819
455364
444860
1557034
908819
753084
1033977
2027899
889951
1335230
754042
908819
1814287
322019
1883368
2743781
1335230
455364
1814287
251749
2099637
445686
753084
2023996
268746
908819
2023996
2023996
2315608
251749
1814287
2301529
2023996
1557034
2027899
754042
2686245
1557034
2686279
1814287
444860
1392231
2315608
2099637
444860
2315608
1557034
1335230
1335230
2686246
444860
2301529
908819
444860
10704
251749
2740801
294631
294631
2301538
2510464
1327982
251749
2023996
1327982
2023996
2041344
2315608
624134
2510464
1486426
2801477
455364
2315608
909297
294631
2740801
444860
455364
444860
180504
2686279
1814287
444860
1536592
1838074
948071
1838074
948071
1838074
1838074
455364
455364
444860
444860
268746
2545435
2268578
2099637
1557034
889951
1814287
1586713
2545435
2545435
2545435
2099637
2545435
444860
251749
2545435
2545435
1392231
2510464
948071
908819
753084
1168478
1391659
2686279
1392231
2686279
1392231
1392231
908819
889953
2686246
2315608
908819
756275
1814287
908819
2686246
2027899
455364
1335230
2315608
444860
754059
180504
455364
754064
268746
444860
2686279
1814287
908819
2801477
455364
268746
908819
1557033
1034139
322019
2686251
1814287
1542477
889951
2590946
908819
1283077
251749
889951
169683
2801477
2686251
2686279
1586714
1557034
496874
2801477
2801477
2686279
754042
294631
1838074
2740801
1920310
756276
251749
169683
2801477
1392231
753085
1814287
496874
382359
2027899
2315608
908819
1920310
2801477
1357423
455364
1814287
455364
536453
1557034
1814287
444860
1814287
1335230
2315608
1814287
1557034
1814287
2510464
754042
1586715
455364
1814287
753084
2023996
2686251
869724
294631
444860
2801477
445683
1814287
445686
445686
1814287
754042
2801477
1536592
1814287
1814287
2686251
1814287
2801477
2510464
1557033
1278485
2107707
1883366
1814287
1814287
445686
1838061
455364
1557034
1814287
753084
251749
1814287
908819
251749
1814287
2686279
2562192
2510464
1392231
2510464
2023996
908819
754042
2767576
238854
294631
238854
2301529
1493511
909297
445688
1814287
2041344
1814287
756276
2023996
1920310
1814287
1814287
1814287
2801477
1814287
1814287
2023996
294631
753084
1335230
1814287
268746
2023996
251749
444860
754042
1493511
2801477
1814287
1239565
2545435
268746
455364
948870
180504
2686246
1814287
2283025
2801477
251749
2772080
1335230
1838074
2268578
1557034
1335230
1493511
948071
908819
10506
948071
1814287
1168478
455364
2686246
251749
2268578
444860
1814287
2686246
948071
948071
1325731
1814287
1814287
1392231
2740801
908819
1109714
908819
908819
1814287
1335230
1814287
1493511
1814287
1814287
1814287
1116482
1493511
169683
251749
2510464
2315608
1557033
1542477
1814287
2315608
1814287
1814287
194699
1814287
1814287
1557033
455364
1557033
908819
445686
908819
1814287
1960658
1960658
2041344
753085
1960658
908819
1960658
1960658
1960658
1814287
1814287
1960658
1814287
1557034
1960658
1960658
455364
2686246
908819
1814287
1960658
908819
1960658
1814287
1557034
1960658
1392231
1960658
1814287
1960658
2801477
1814287
1960658
1814287
1814287
1815521
1814287
1960658
1815521
1960658
1814287
908819
1960658
908819
1960658
455364
1960658
445686
2593333
1814287
2801477
180504
242527
754042
1536592
238854
1838061
2023996
455364
1392231
1239565
2686279
322019
2686246
455364
1536592
2686279
2100130
2686246
1084719
1814287
1814287
251749
251749
1917232
2801477
1814287
1814287
2041344
1880590
455364
2026080
1814287
2801477
1542477
2686250
908819
948071
948071
2686247
908819
1557033
2099637
2010329
444860
251749
2070181
1814287
1814287
251749
2686279
2801477
948071
1084719
444860
536453
2686247
2686279
2041344
1150991
444860
1814287
2023996
444860
251749
1814287
1814287
2593333
1814287
2010329
1109714
1814287
444860
754042
754042
1814287
2041344
1814287
1542477
2041344
1815521
10506
445688
2517973
205877
251749
2510464
1392231
908819
455364
1814287
1814287
1883371
1586714
251749
455364
205877
205877
2801477
1283077
1913591
908819
754042
446529
1814287
2686266
444860
1033977
2015853
1838074
1557034
754042
2545435
2686279
1913591
590739
455364
889951
1197951
2686279
1814287
1814287
1150991
2545435
455364
2686279
2686279
1392231
908819
2686266
444860
1557033
1127518
1283077
1239565
2024264
1814287
2510464
908819
523909
2099637
2801477
908819
2099637
1493513
1814287
2801477
180504
294631
2099637
1814287
2041344
948071
2099637
2099637
2099637
445686
2510464
2041344
444860
1814287
1814287
2023996
2801477
2767576
180504
1557035
322019
2099637
1814287
880159
2099637
908819
2099637
1814287
2723758
1474867
2015853
1335230
1814287
445686
2801477
1814287
322019
1814287
2041344
908819
455364
2041344
546805
2772074
1542477
455364
1814287
446529
1392231
445686
455364
2483719
1283076
754042
455364
693272
1814287
2268578
2590946
2801477
2593333
2100130
444860
1557034
754042
754042
2678601
1168478
444860
2015853
1814287
2041344
444860
1838074
2026080
573174
455364
1332145
2419942
2801477
251749
2545435
546805
889951
2686279
2041344
1814287
1883369
1814287
446529
2545435
1586714
1814287
2015853
2510464
242527
754042
444860
2599838
2740801
251749
2510464
908819
444860
251749
2510464
1586714
2315608
948071
1814287
1917232
908819
1557034
2483719
1814287
1332145
1536592
889953
294631
1917232
1557034
1814287
889956
1814287
2686279
1084719
2510464
238854
2686266
2686266
294631
251749
1814287
455364
2801477
1814287
1814287
1493511
2801477
268746
1814287
2801477
1084719
2491321
889953
754042
2801477
1557034
2015853
536453
2015853
2801477
1838074
2023996
2041344
2686279
1814287
268746
889953
2315608
294631
1239565
1815521
2315608
2301529
2491321
2023996
1557033
2686279
2010329
251749
1814287
2801477
2510464
1557034
2593333
536453
455364
2491321
889953
1542477
2686279
2483719
1340810
1557034
194699
2686279
1332145
1392231
1340810
1332145
2686279
2508195
1557034
447909
1838074
455364
1814287
268746
1332145
2686279
2491321
444860
1084719
444860
1335230
948071
2491321
1814287
294631
2023996
1814287
889953
753085
948071
2041344
1814287
754042
948071
948071
2268578
1880590
1814287
444860
2491321
251749
444860
444860
2801477
754042
251749
445700
2315608
1327762
2301529
251749
2315608
1536592
754059
2023996
1542477
1814287
1283077
2315608
908819
908819
1557034
2315608
1883369
2315608
1913591
455364
2023996
2010329
251749
1084719
1586713
2686279
1084719
2041344
294631
2723758
322019
2686279
1168478
2686279
1542477
2023996
2491321
2268578
2686279
1814287
1557033
1239565
2488789
1814287
1168478
1557033
2686279
1084719
2023996
2801477
889953
2801477
1557033
1586714
2740802
2801477
2686279
10678
455364
1084719
1325953
2801477
2491321
2686247
1283077
2268578
1814287
455364
1392231
1557034
948071
1814287
644524
294631
2099637
880161
2301529
590739
2025360
251749
2301529
2762283
2801477
169683
2590946
1557033
2686246
1541883
169683
2801477
2801477
2740801
2099637
889951
1150991
1109714
169683
1325953
2686251
2801477
1327971
2743801
2686266
2686246
2686279
169683
1883366
1557034
2282904
1283076
948071
1084719
948071
2023996
2686250
444860
1883366
2282904
205869
756275
2023996
2023996
455364
2491321
693272
2041344
2491321
2023996
2686246
1133293
754042
446529
2686246
1327981
2801477
753085
2510464
455364
2545435
2741077
444860
169683
446529
1269028
2767576
693272
205869
1084719
1542477
2762283
445686
2491321
1327982
2315608
2686279
2686246
1084719
2491321
2491321
753084
1883369
908819
1392231
2686266
2801477
1392231
948071
205879
268746
1815521
908819
2510464
1335230
446529
455364
1392231
2041344
1542477
1960658
1960658
2686245
2801477
444860
1567484
2686266
908819
2801477
948071
1814287
1269028
251749
2686279
880161
2801477
1960658
2686279
908819
2686251
169683
444860
455364
1493511
1109714
2079134
251749
2590946
1335230
444860
2686279
1392231
455364
169683
2023996
754059
754042
908819
455364
1542477
294631
948071
1493511
1814287
2686266
1542477
749413
1814287
455364
1283076
2268578
2801477
1917232
2545435
322019
889951
444860
1557034
2510464
2041344
1586713
1084719
2801477
455364
1838061
2744004
2315608
2686247
1814287
1883369
1283077
2510464
2023996
1325731
2491321
948071
1814287
2686279
2801477
1392231
1392231
908819
2801477
908819
1814287
908819
294631
1392231
294631
455364
1814287
1392231
444860
889953
1084719
1327982
445688
1814287
2268578
2772078
2801477
2801477
1814287
2510464
1084719
1838074
1283076
1540097
2510464
2510464
1127518
1814287
948071
1084719
268746
2686266
2801477
754042
1084719
445688
2023996
1814287
1814287
2686266
1325953
948870
2772078
2026080
1084719
1051675
2801477
909297
2588518
1084719
754042
1814287
268746
1168479
2801477
2023996
1325953
2686279
2686246
1814287
1335230
322019
1792032
1150991
2510464
2686279
1589733
1557034
754042
205869
444860
1883369
1814287
1325953
1084719
251749
205877
1814287
2099637
1283077
251749
754037
908819
2686279
1340810
268747
2510464
205877
251749
2571249
455364
251749
205869
322019
2686266
908819
1814287
2686245
754059
2686266
2026080
754037
205879
1557034
1332145
2491321
181082
251749
1325731
1325953
1920311
1493511
2023996
2510464
1880590
889953
1150991
889951
1883369
1814287
446529
754059
1325953
2801477
2023996
1557035
2686245
1586713
2491321
445686
1814287
1392231
2041344
251749
2268578
889953
268746
1536592
2024264
268748
2686279
268746
1168478
2510464
1557033
251749
2099637
2041344
889951
1084719
2801477
2491321
2041344
251749
1335230
1327982
1814287
1814287
1327982
1084719
1335230
948071
1814287
948071
753084
1814287
1557033
948071
112023
1335230
889953
1392231
948870
2099637
2041344
753084
1814287
1814287
2041344
2491321
2099637
446529
2686279
948071
251749
2686279
268747
889953
2510464
251749
2686279
756275
1327037
2686279
754042
238854
1392231
2301529
2686279
2491321
948071
2686266
2678601
2686266
2099637
455364
1084719
1814287
754042
1814287
948071
1557033
2686266
2686279
1814287
2099637
2491321
1084719
455364
2801477
1079998
455364
2052742
1474867
2510464
455364
251749
1084719
1814287
2686279
2491321
322019
2491321
2491321
2510464
455364
1814287
251749
2686279
1335230
754042
1557034
2686279
2801477
444860
455364
2686266
2686246
2079426
268746
2510464
2268578
2015853
948071
1325731
230158
455364
749413
2801477
2079289
169683
2801477
1327956
194699
1814287
1335230
2740801
2041344
2510464
1814287
2510464
2801477
749413
2026080
908819
1814287
2686251
2686279
908819
446529
2740801
455364
1332145
1137745
2686279
2801477
446529
1335230
2801477
2510464
908819
446529
2801477
2510464
1474867
2491321
1127518
2547425
2510464
1814287
2099637
455364
1814287
444860
2026080
2283261
2740801
1542477
1557033
909297
1586715
1814287
10678
1332145
2079289
455364
180504
2686246
2686246
547228
230158
2686279
444860
1542477
2686246
446529
444860
268746
2740801
756276
2772078
2491321
889951
446529
2686279
2510464
2510464
2023996
754042
2686279
2510464
1168478
444860
1814287
754067
2510464
2024264
205879
2250336
1325953
1168478
889953
444860
1033977
1168478
1838061
1084719
2268578
444860
2686279
455364
2025360
2027899
251749
1084719
754042
445688
754042
445688
555387
2686279
2510464
268746
555387
251749
2601643
444860
1557034
2801477
2686266
2686279
2686266
948071
2686266
754042
1815521
251749
2024264
444860
2510464
2510464
455364
1557034
444860
1883366
2801477
2510464
2686266
455364
251749
1814287
1814287
1335230
1814287
1815522
1327982
2024264
2510464
1586713
1335230
2801477
1335230
2686279
444860
1335230
1392231
1586715
948071
753084
2801477
1883369
2041344
889953
948071
455364
2510464
1273711
446529
205869
754042
455364
1814287
908819
889951
2686266
251749
2510464
445696
1084719
889953
205869
1084719
889953
2491321
2510464
2510464
756275
455364
1493511
446529
754042
2686279
754042
2491321
889951
2686279
2686279
2023996
1084719
754042
754042
169683
444860
2510464
455364
2510464
2801477
2686245
2545435
1327762
2759730
1335230
2762283
2491321
205879
1283077
444860
2686251
2767576
2801477
1283077
446529
2801477
2686245
754042
693272
455364
2686279
268746
251749
444878
1335230
2740801
1493512
268746
2510464
693272
444860
756275
2686279
743813
1084719
2510464
2686279
2740801
1586714
2041344
590739
1084719
693272
169683
1301279
455364
754042
2023996
446529
455364
693272
446529
1883369
251749
251749
2686251
2023996
1283077
2686251
2041344
1335230
2686279
1084719
2686250
1815521
948071
2801477
2268578
1084719
889956
754042
2562175
455364
1814287
1168478
754042
2686251
2491321
1051675
446529
446529
1527771
2740802
1084719
2686279
1917232
1168478
444860
2510464
696472
2686279
2686251
455364
2686279
1168478
2686251
455364
2686266
455364
2041344
444860
2686246
2696339
2686279
1392231
756276
754042
2686279
948071
2686279
2491321
754042
444860
1880590
2686246
2029657
1557034
455364
205869
908819
908819
2041344
2686279
2686247
444860
444860
251749
1084719
1392231
754042
1880590
444860
1814287
754042
1542477
444878
1934252
322019
754059
948071
1327982
251749
1814287
455364
446529
2801477
205879
2723758
1493511
446529
753084
2723758
2025360
205879
1084719
2510464
251749
444860
2740801
2801477
948071
205879
754042
908819
754042
2301529
2743781
1814287
547228
2686245
251749
205879
2686266
2686279
2801477
2686279
2686266
2686279
2510464
169683
2686250
205879
2510464
948071
2686279
2510464
2015853
455364
2686247
2686279
1357423
169683
455364
1168478
2041344
2686266
889953
880162
2510464
2686250
169683
2510464
1335230
169683
908819
754042
1335230
2686279
2099637
2743781
2686279
445686
268746
948071
948071
2510464
1168478
1325953
2686245
2023996
948071
1335230
2510464
446529
948071
455364
948071
2510464
1913591
948071
2510464
455364
445686
1325953
948071
2686246
1335230
948071
2686279
754037
268746
948071
2052742
2686266
2510464
180504
889953
1029988
2041344
754042
251749
2686279
1340812
1883369
180504
1029988
1168478
2743826
948071
2686279
754042
948870
1029988
181082
2041344
2686251
1335230
445688
455364
238854
1168478
446529
1557034
2099637
2723773
754042
1557034
242527
2026080
444860
1084719
2545435
2510464
2801477
1392231
1168478
1586713
446529
693272
2686245
2283303
1325731
753084
1586713
1084719
1493511
1084719
2686245
1335230
455364
2250336
2023996
1084719
446529
2099637
2686251
1168478
455364
444860
1883368
181082
1493511
908819
1168478
445688
2547425
2686251
444860
1590550
205879
1357423
455364
1572745
2801477
1187128
1150991
205877
251749
1880590
889951
1335230
2686245
2686246
2801477
455364
1325731
455364
1815521
2801477
1392231
2024264
2686279
1168478
1392231
2686251
1335230
754042
1880590
335797
446529
1335230
2510464
2801477
1557033
446529
2491321
1150991
2686279
2716352
242527
455364
2686266
2510464
590739
455364
2268578
2801477
251749
1168479
2026080
2686266
1283077
880161
455364
2301556
455364
455364
2025360
2491321
251749
2686266
2510464
2510464
2023996
880159
1392231
328615
948071
2510464
2686279
2686266
445688
2510464
2510464
2041344
754042
2041344
908819
1335230
2686251
2686266
909297
948870
889956
1557033
294631
2686266
536474
889953
1542477
376849
2743781
2686251
251749
2801477
294631
1335230
2686251
455364
2740801
546805
376849
2740801
455364
2107708
2491321
2772511
546805
2740801
1327971
445686
2740801
2510464
2686279
1493511
1327971
2491321
2772511
2740801
455364
2510464
1327971
2491321
1883369
2686266
1335230
1493512
2740801
2686246
2686266
1557034
1590550
444860
1327971
1965368
880161
1084719
37665
880159
754042
2491321
2079426
446529
1327971
447909
2801477
1335230
1327971
446529
1493511
1917232
1327971
1327971
2491321
2678601
1150991
2052742
1084719
2759732
2686266
446529
455364
1392231
2510464
322019
2686279
948071
455364
2510464
2510464
1084719
2510464
948071
2510464
756275
754042
335797
1273711
2743826
1034128
446529
1557034
1283077
251749
1493511
1557034
1084719
2510464
1283077
1557034
322019
180504
2686242
1493511
1590550
444862
948071
2801477
2510464
2025360
455364
948071
909297
2079426
1127518
2801477
754042
2801477
1084719
1392231
320837
1557034
2686251
2801477
444860
2743781
1084719
1239565
1493511
753084
1327971
2801477
909297
2801477
948071
455364
1590550
205879
2801477
2801477
2801477
376849
908819
909297
2801477
268746
1493511
2268578
2801477
2801477
446529
2801477
2801477
889953
2741074
908819
455364
2510464
2301529
2686245
2686250
1880590
1567014
2801477
180504
1556290
2026080
2100130
909297
455364
948870
2743826
2686245
444860
455364
1557033
294631
753085
455364
1880590
1557034
1880590
2743781
1029988
1557033
1029988
2686266
455364
455364
1493511
1557034
2491321
1283076
2801477
446529
455364
2100130
948870
753085
1168478
1029988
335797
1392231
251749
1084719
1084719
2801477
2041344
2491321
2041344
754059
180504
2801477
251749
1283077
908819
2801477
2743781
251749
251749
2027899
455364
444860
2023996
455364
753084
2510464
2023996
446529
180504
446529
889951
238854
2686247
268746
1493511
2686251
446529
754042
1493511
446529
446529
754059
2571249
2041344
2023996
294631
205879
1493511
446529
1542477
754042
2686279
2547425
2041344
2686246
754042
1524882
1335230
1325953
754042
1815968
205879
880161
2025360
1917232
335797
251749
2686251
2268578
889953
1168479
320837
2301538
1557033
2812854
181082
1557034
754042
754067
754042
2107708
1283076
1883370
2100130
1168478
889951
1283076
444860
455364
2510464
2772074
754042
1590550
755272
455364
446529
2801477
2023996
2015873
1327956
445688
754041
2099637
2686251
2491321
320837
2099637
268746
2099637
1590550
1883368
180504
322019
889956
2491321
2510464
446529
1084719
1187128
2301529
1168479
1392231
320837
2686279
2686279
2510464
1557035
455364
2491321
2801477
948071
1590550
908819
445686
294631
2491321
1332145
294631
444860
756276
908819
268746
2107709
948071
1557034
2565501
446529
908819
756275
251749
2740801
2696426
756276
2801477
205879
2491321
399781
1168479
2801477
322019
948071
2510464
2801477
2801477
753084
2491321
889956
447909
376849
181082
455364
1557033
444860
2510464
2743781
889953
205869
1586715
2070181
1335230
1557033
2743781
2100130
251749
2301538
251749
2100130
908819
2491321
2510464
2510464
2743781
446529
2510464
2491321
2010329
2491321
1084719
1283077
455364
2491321
455364
1084719
2743781
2070181
251749
455364
2099637
455364
753084
1357423
2686266
1392231
294631
2015873
455364
2743781
754042
2510464
948870
455364
2023996
455364
238854
322019
322019
1084719
2686251
251749
2565696
2686250
2686266
455364
2565696
294631
294631
2027899
251749
455364
294631
446529
2686266
294631
2686266
2023996
753085
1084719
268746
2686266
455364
889956
455364
446529
2023996
1557033
446529
2099637
2686279
2686279
2686266
2686246
1195085
242527
455364
2025360
1084719
889954
2510464
2686279
2023996
1195085
754042
2686246
2801477
1335230
444860
251749
2041212
2801477
2301529
446529
1273711
2301529
2686279
1084719
2696426
2686251
2025360
2491321
1934252
444860
455364
1283077
455364
1542477
1084719
2041344
2107707
546805
1084719
2510464
294631
1269028
2510464
2023996
194699
1325731
546805
762660
2812854
2268578
205879
251749
2801477
1141136
446529
455364
2491321
2491321
446529
446529
2686251
2772511
908819
948071
880159
1815521
1327977
665032
1168479
2010329
2590946
2268578
753084
2491321
1168478
294631
2801477
948071
1283076
2510464
948071
1815521
2743781
2107709
1349410
2041344
1557033
242527
251749
242527
1542477
1555202
2686247
1392231
2041344
693272
1278479
1033977
446529
455364
2772074
2743781
1033977
2759730
1084719
1493511
754041
1349410
2593360
1883369
2023996
251749
1349410
908819
2686266
251749
1033977
444860
320837
1586714
693272
948071
1542477
2686251
908819
445684
2772511
446529
889953
2491321
455364
2041344
908819
2510464
2510464
1557035
1917232
2686279
754042
2250336
754042
446529
1880590
294631
908819
754042
1392231
455364
446529
753085
2801477
1586713
1278479
444860
2023996
1084719
948071
948071
948071
446529
251749
2510464
889951
1052673
754042
455364
1278479
322019
446529
1557033
1335230
180504
908819
948071
380598
948071
948071
753085
546805
455364
948071
446529
754042
2686266
1586713
446529
2801477
1883370
1883369
251749
1917232
2483719
455364
445686
1527524
445696
1325731
1084719
446529
2014434
446529
889956
1883370
294631
1133292
2801477
2801477
446529
1084719
446529
754042
446529
455364
444860
2801477
2801477
294631
455364
2801477
1557033
2801477
1586715
205869
2801477
1141136
181082
1917232
1557033
2743781
1567014
251749
908819
205869
756275
1815521
1168479
455364
2029657
446529
754059
446529
444860
1357423
455364
455364
188350
908819
2099637
1327981
455364
46021
1590550
1536592
1084719
1357423
2041344
2023996
2590946
754042
1493511
446529
1392231
251749
268746
1084719
2100130
455364
455364
1084719
455364
446529
2510464
322019
1883369
2041344
2510464
1084719
2812854
444860
2510464
754042
1204517
445686
455364
251749
2801477
205869
444860
2801477
2041344
1486472
445696
754042
1392231
1084719
446529
754042
1283077
446529
227720
2041344
889953
693272
2041344
1917232
1335230
536444
1084719
1536592
2041344
2772074
2686266
1392231
2041344
2686245
446529
2484217
2041344
2686251
1084719
455364
1969841
251749
1960658
1883366
753084
2530160
2686251
753084
1150991
889953
251749
2590946
1917232
205879
1917232
1084719
2023996
1557034
2510464
2510464
1168479
1917232
2686247
2510464
2565501
2041344
908819
2801477
1168479
2510464
2510464
2041347
268746
2491321
756275
10724
2656541
1392231
1880590
268746
2686251
1960658
447909
294631
205877
2510464
445686
573174
573174
573174
573174
455364
455364
205879
445686
1329402
909297
1557033
2099637
573174
469660
754042
573174
335797
251749
573174
455364
455364
2041344
573174
908819
573174
889953
1567484
536466
573174
1084719
573174
1084719
573174
754042
573174
2024264
573174
1880590
573174
446529
573174
2801477
573174
880161
1195085
2010329
573174
573174
573174
205869
573174
573174
205869
2686245
573174
1406788
1327982
2686245
446529
889951
573174
573174
446529
573174
2041344
754042
1269028
2801477
1084719
1557033
2801477
753084
1335638
756275
754042
1814287
2801477
1357714
2801477
2041344
2801477
2686251
2801477
2023996
1917232
2801477
2686279
2801477
2801477
2801477
2801477
2801477
889954
446529
1283076
1586714
2801477
753084
2801477
2023993
1557033
2483719
2686258
2801477
446529
2510464
2801477
251749
2801477
1557033
2491321
2801477
446529
2686279
268746
2686247
1220717
446529
2010329
2099637
455364
251749
2801477
2743781
2517973
205869
2027899
1880590
2014434
1084719
2027899
455364
1084719
2041344
455364
889953
455364
2491321
455364
399781
2704031
455364
455364
455364
455364
2041344
2716352
444860
455364
1327758
2686251
268746
754042
1880590
2547425
2686245
2099637
2686251
749413
2041344
994601
1917232
455364
455364
455364
2686251
2025360
455364
251749
2491321
446529
455364
2772078
294631
1357714
268746
2686245
1557035
294631
2041344
2772078
1084719
753084
2107707
10704
455364
2801477
1883370
455364
294631
1283076
455364
749413
251749
445686
251749
446529
1392231
2686251
2099637
1542477
455364
2041344
251749
251749
447909
2590946
205879
2593356
1168479
455364
1917232
2491321
1084719
1536592
2079426
1391659
444860
335797
1084719
1392231
1357714
749413
446529
455364
908819
2686266
455364
1283076
1557034
446529
2491321
754042
455364
754042
749413
251749
2100130
1168479
2023996
908819
1168479
444860
1557033
242527
908819
2023996
1084719
2023996
2041344
322019
446529
251749
1917232
936152
444860
251749
1046267
936152
754044
2100130
455364
889951
2041344
1335230
294631
1557035
2510464
181082
1589733
546805
1283076
446529
2041344
753084
756276
908819
2027899
754042
413066
889953
2686246
1557035
446529
2100130
754042
889956
2268578
1572743
1557034
2491321
1557035
446529
2686251
2041344
2686247
1084719
2041344
1335230
205869
1586714
2743826
2686251
455364
1335230
2023996
1590550
908819
1917232
1084719
1327993
1168479
754042
1327037
2759393
205879
2716351
446529
1917232
205879
2099637
455364
1917232
2686266
2686266
445700
455364
1084719
2041344
2686266
2686251
205879
205879
446529
251749
765765
2099637
2100130
1838075
2743781
2723758
1392231
756277
2686245
1340812
455364
2283303
1392231
1883369
294631
1891703
2041344
1917232
1883369
294631
2491321
444860
2743781
908819
1325953
455364
455364
2419946
251749
2686242
446529
251749
75320
889953
2023996
908819
1357715
749413
908819
446529
444860
753084
1891703
2014434
2023996
1349409
1962671
1883366
1917232
444860
169683
1891703
1084719
169683
2562192
2070181
2100130
948870
455364
1168479
1335230
948870
2743826
1838075
1540097
444860
205879
2562192
756275
446529
2801898
1051675
948870
2686247
1557033
754042
2743781
1557033
2419946
1136535
2023996
696472
2025360
2686247
2593351
2686266
948071
2686266
1328030
1586715
10704
2488789
455364
446529
2023996
1792032
446529
2696426
1493511
2590946
445686
2590946
754042
444860
2107707
1084719
2743826
2743781
1493511
1168479
1283077
546805
445686
251749
455364
1392231
2743826
948870
251749
1883366
238854
2686266
320837
1029988
2743781
1168479
756275
268746
444860
1557033
2743826
1168479
2743781
753084
2801477
2743826
2024264
260149
322019
455364
445700
1327981
2801477
1557033
948870
2590946
455364
2491321
1917232
2099637
1573458
2686266
2545435
756275
2686266
948071
1168479
446529
536453
536466
908819
1168479
2024264
1557035
335797
2686245
455364
205869
294631
72201
446529
446529
251749
2025360
455364
268746
1325731
2053653
2801477
446529
2041344
642926
2743826
1327982
294631
1792032
1917232
1335230
1590550
2015873
2686245
2301621
1168479
1917232
455364
444860
1897532
1327982
2686251
1917232
2510464
2010329
908819
2510464
2801477
2590946
2686266
1917232
1141136
1557034
1814287
2801477
2041344
1327971
1527515
2743826
181082
1557033
1327977
2686266
909297
455364
181082
1814287
251749
1329402
455364
880162
2686251
908819
2801477
212035
2686266
1586715
1335230
2545435
2743781
1880590
1880590
455364
693272
2010329
294631
444860
1141136
1458670
447909
1141136
908819
880159
2801477
268746
536466
1917232
1917232
696472
1880590
2743826
205879
1557033
1168479
1141136
1458670
908819
251749
936152
446529
2781364
754042
455364
2801477
444860
2023996
2565501
1821552
590739
2801477
2041344
455364
2053813
2590946
1917232
1079999
2014434
455364
380598
2491321
455364
1821552
2801477
2491321
455364
908819
753084
446529
1335230
756275
1821552
2590946
455364
1557033
889953
376849
2743781
455364
1557033
1557033
1965368
1051675
444860
1084719
2812854
445686
2686251
908819
2590946
444860
1325731
446529
1821552
1880590
1883368
1168479
455364
2590946
455364
2023996
1880590
2704033
2686251
1335230
1917232
2491321
1557033
2041344
1084719
35241
2491321
251749
447909
455364
1335230
1557034
754038
1283077
1983572
1335230
2026080
880161
1335230
1557033
446529
1335230
1195085
455364
380598
446529
2686266
1168479
1335230
2530160
2041344
2801477
687803
446529
205879
1557034
880162
908819
1283076
335797
1586713
2801477
1883369
1567014
445688
1913591
294631
294631
294631
251749
496874
496874
2571249
2801477
2686266
2510464
445688
2182408
1536592
2041344
2686245
908819
251749
2070181
445688
1557033
1283077
984175
1328030
1542477
2801898
2023996
2590946
294631
2545435
880159
444860
2234093
2070181
169683
446529
756275
1328030
2268578
2099646
455364
294631
2014434
1880590
10678
2686251
279280
1147094
1883369
455364
2686251
880159
1814287
446529
2686270
1897532
2801477
2491321
754042
948071
1325731
242527
2023996
948071
205869
1573458
2743781
251749
2743826
2484217
2491321
2743826
1084719
2801477
2491321
2686266
2801477
2041344
1590550
455364
948870
2041344
251749
2743826
322019
2801477
2801477
2801477
181082
1177632
1917232
2759720
1325731
447909
251749
1821560
2743826
455364
2801477
754042
445686
335797
2510464
2801477
2023996
2590946
2491321
2491321
444860
2743781
1907784
1349409
455364
1965363
238854
2041344
1590550
1283076
1335230
2762400
1084719
382262
444860
2801898
1590550
446529
455364
444860
251749
1283076
1392231
2041344
268746
2023996
2686251
889953
1837876
1917232
1283076
1029988
2041344
2491321
2023996
2686251
251749
1486424
444860
2023996
445696
238854
1557034
445696
2052742
2041344
322019
2510464
294631
2023996
455364
2590946
2483719
444860
294631
445696
1814287
455364
445696
753084
2483719
2023996
753085
1983572
908819
2510464
1283076
446529
445686
294631
2024264
399781
2716351
1141136
1168479
2023996
2801477
268747
446529
1917232
455364
536474
1392231
35241
1557034
2510464
1417599
35241
2301714
446529
2041344
889953
2025360
455364
1168479
1493511
251749
2182319
294631
908819
889951
1325731
2801477
880159
2743801
1141136
765765
908819
2023996
2743826
754039
294631
251749
1335230
2010329
2743826
238854
444860
756275
889951
2743826
754042
444862
1084719
1046267
251749
889951
1542477
380598
2099637
2743826
2023996
880162
455364
1493512
2686251
2801477
1084719
1168479
1917232
1283077
754042
1335230
546805
2100130
877240
2023996
2743781
1239565
455364
909297
268746
642926
2041344
696472
1327981
455364
2686273
28873
2026080
696472
2491321
2283267
2801477
2041344
546805
320837
251749
1084719
455364
1392231
455364
455364
1392231
696472
1880590
268746
444860
1357423
455364
1392231
376849
889953
264729
2510464
754042
2041344
446529
446529
1051675
2041344
2026102
1269028
268746
1328030
446529
305674
455364
455364
1590550
765765
455364
1880590
2041344
2686266
335797
444860
1883369
446529
2041344
1392231
1557033
1269028
1814287
1917232
2801477
294631
2041344
294631
1084719
294631
754048
756276
444860
205879
455364
1168479
754042
2801477
205879
1084719
2024264
1589733
2024264
1327971
294631
2801477
2743801
2041344
2801477
908819
1327971
2041344
642926
294631
1204524
2686266
2026080
2686266
2100130
2510495
445686
1325731
251749
2491321
1327971
1327971
948071
756276
1026955
2070181
753084
446529
445686
444860
2268578
2801477
455364
1557033
2801477
2686242
2743781
1084719
2686266
181082
2801477
2025360
455364
2686245
756275
2250335
445686
908819
2801477
2590946
445693
251749
251749
268746
2686266
1917232
1557033
2014434
2041344
2716351
2678601
1556290
642926
889953
2801477
2547425
1283076
2686251
268747
753084
754053
2023996
446529
2053812
1392231
1168479
2025359
1283076
1335230
1084719
2686251
755272
908819
2510464
2741073
1283077
2079282
2686245
97195
2041344
1329402
753084
2491321
1327982
2801477
268746
1392231
2590946
2079426
909297
1150991
1283076
445700
1204524
1168479
1586715
380598
380598
1325731
1327982
455364
1036616
1283076
1837876
1084719
2107707
1141136
2510464
1329402
1527524
446529
2743781
2024264
380598
455364
1084719
1329402
880162
251749
1493511
1283077
455364
754059
205869
908819
251749
590739
294631
2079426
2743826
2026080
753084
754059
2801477
1136535
2601643
446529
1283077
2743781
1283076
1084719
1917232
205869
2801477
2653725
2686266
335797
1586714
181082
2716351
294631
2801477
1084719
1349409
908819
2653725
1557034
294631
2686266
753084
2743781
2590946
2708562
1137745
2023996
948071
2686251
1392231
2041344
2708562
2510464
2590946
2562175
948071
2743781
1917232
2491321
2041344
2801477
2588131
2678601
2283267
2070181
2488788
2686266
1168479
2743781
1283076
2023996
1557034
205869
1542477
446529
455364
2599764
754042
2491321
1084719
2686251
2052742
2510464
2743781
2743781
251749
2510464
444860
753084
2686251
1283077
1415147
251749
1137745
2686246
2686266
948071
2801477
1557034
2590946
2041344
984175
2801477
445688
445688
294631
2686266
754042
2015853
445688
445688
445688
2801477
2743826
1141136
1137745
2743781
455364
2041344
2601643
1542477
445700
687803
1335230
756275
2801477
2023996
908819
1136535
2041344
2015873
981335
2743826
455364
2801477
2041344
1542477
1392231
251749
455364
1542477
2686266
1542477
1283076
455364
1392231
880159
2686266
322019
1335230
2601680
1586713
2686251
2041344
573174
1880590
1168479
753084
687803
455364
2025360
2743781
2686245
447909
764562
1536592
889956
590739
1283076
693272
2027899
1283076
2801477
908819
880161
2023996
889956
2023996
2801477
1084719
2041344
2686266
2801477
1493511
2686245
693272
251749
754059
2686266
2801477
1557033
2812854
2510464
2686242
35343
753084
1392231
1084719
1283076
2801477
2686266
2686266
573174
754042
2590946
2488789
446529
1557033
205879
382359
573174
268747
2686266
1814287
2716351
2023996
268746
2743826
756275
455364
2107707
2014434
2023996
455364
10506
2510464
2686266
2801477
2023996
2099637
2099637
1883368
1557033
2716352
399781
1557033
2491321
2686266
2014434
251749
2686437
2601643
1557035
880159
1557033
1557033
1557033
753084
2740801
455364
2812854
2041344
1557033
1557033
2491321
1029988
455364
1327981
2107707
1335230
2015853
756276
880159
754042
2772511
251749
754042
2108134
693272
455364
1472912
889956
2601643
889951
2772511
2590946
446529
2041344
754042
205869
889956
446529
2716351
1392231
908819
1211278
445686
1880590
446529
446529
2686251
948071
756275
696472
455364
446529
1917232
2483670
756275
1486472
2491321
889956
2801477
2283304
2743826
2108127
2491321
701257
1880590
1815522
1327977
1815522
889956
889951
446529
1327971
1283076
1883369
2716351
446529
2743826
2743826
1168478
1327971
2801477
268746
889951
2070181
1327037
322019
264729
1838075
1283076
2743826
1917232
2801477
2801477
1493511
1084719
2571249
455364
1084719
446529
1821566
445686
2801477
1051675
444861
1542477
2686266
455364
264729
446529
2571249
2686242
1573458
2743826
196242
268746
1917232
2024264
2023992
2743781
446529
2686266
2107707
446529
444860
251749
2107707
1983572
2301561
2268578
242527
1204517
2678601
2014434
251749
2590946
251749
1168479
445684
2510464
35241
2686266
2590946
670252
455364
756275
251749
2023996
268746
765765
1880590
1392231
1283076
658401
10704
1590550
2027899
2510464
2801477
2716351
2686245
446529
2584487
2023996
444860
455364
2686266
1815522
455364
2678601
693272
455364
658401
753084
251749
2686247
2014434
1283077
889956
2070181
455364
2041344
2743781
455364
2716351
446529
75320
984175
1557033
2599764
251749
1168479
754048
753084
2743781
2301561
2491321
2716351
889951
1493512
2484217
2686266
2743826
294631
2590946
207656
455364
1327037
444860
1917232
1392231
322019
2801477
251749
2686251
2686245
1283077
573591
455364
1557034
2686251
1283077
1917232
1557034
2530160
151539
1168479
1283076
2510464
10506
2743781
2801477
399781
1557034
455364
112023
754042
754038
1329402
455364
322019
1880590
1392231
455364
1357714
2801477
1392231
2686266
2079426
2419946
251749
1883369
268746
2041344
2590946
1084719
2743826
1969841
2510464
523909
2510464
2510464
1168479
2510464
1150991
176652
2491321
455364
2686251
1084719
2801477
1917232
2510464
1586714
446529
1557033
2590946
1168479
320837
2041344
320837
696472
2686266
320837
2801477
1168479
1335230
2801477
1873777
1168479
196242
1269028
755272
1392231
1557034
2743781
1917232
1557034
251749
251749
455364
2686266
2686266
1051675
2079426
1051675
1335230
2716351
2743826
1335230
445700
2772078
754042
2743826
2268578
2686246
1392231
2686266
1084719
455364
2743826
268746
251749
2716351
455364
446529
1168479
880159
1880590
1796997
72201
1883369
753084
251749
1141136
2023996
2268578
1880590
1168479
2023996
251749
2716351
1084719
2041344
1168479
2182319
1557033
251749
1796997
2801477
2772511
1873777
1084719
1168479
2664196
445686
2041344
2601643
909297
2716351
2801477
756275
444860
446529
2716351
1917232
2023996
2590946
2743781
753084
2079134
2510464
2053653
1084719
889953
2510464
2491321
1557033
2743781
1472912
205879
1084719
1042122
2743826
2686245
1105171
444860
445688
754059
1917232
683735
1557034
251749
2743801
1821560
754042
2041344
2801477
444875
1883366
2801898
1873777
1283076
251749
376849
455364
1458697
10256
2590946
268746
754042
1084719
455364
294631
1917232
446529
251749
2510464
948071
1917232
2743826
1837876
445696
1141136
2801477
2250416
1335230
1542477
2741073
1557033
573174
1557033
2590946
2268578
1557033
1278479
753084
2070181
28874
268746
455364
455364
2041344
1883368
2716351
1325731
2107707
2023996
1325731
2041344
1349409
2026102
1493511
2491321
1052673
2590946
2510464
322019
2491321
455364
1873777
2015853
1283077
446529
2743826
294631
1542477
1880590
2023996
2801477
2801477
754042
2041344
446529
2686246
2686266
693272
2041344
869662
2023996
889953
294631
2686251
2686251
2716351
889953
2812854
1283077
1417599
444876
2743826
97195
2024264
2686245
2182319
2801477
1557033
2014434
28874
590739
1883366
2041344
2024264
480808
1837876
268746
2801477
1557033
1917232
1917232
455364
1883368
2686245
2743826
1883371
2741073
1557033
1283077
455364
2107707
10506
2041344
2743826
2686245
754048
455364
1590550
455364
2510464
2772074
2510464
2801477
2686266
46021
1493511
2801477
1837876
446529
380598
455364
754042
2743781
1557033
445686
2510464
2812854
889953
268746
1472912
1792032
1283077
2716351
2743826
1349409
2716352
2743826
2491321
251749
446529
1283076
948071
268746
2686251
2041344
2743801
2743826
2686266
2686245
455364
2026102
2743826
753084
455364
455364
2686245
948870
2590946
2743826
929832
1406782
1472912
455364
2743781
1542477
251749
2014434
2801477
2590946
1980139
238854
1349410
642926
2740801
268746
2530160
1036616
2743826
1590550
565140
948071
294631
1269028
1567014
1079998
2510464
1557033
251749
2801477
445696
28874
445692
1308863
1493511
754042
1335230
251749
1542477
251749
2716351
2590946
2686245
2510464
880161
754048
1168478
2010329
322019
869724
880161
1493511
2026102
2743826
1235689
1883366
2704033
1814287
2743826
523909
2686245
1542477
2686251
1109717
1349409
2024264
1283076
2743826
1458843
447909
1917232
2801477
2491321
455364
2014434
2686247
1542477
1283077
1168479
2014434
1542477
1567486
1325731
1472912
1084719
1168479
2419946
1033977
251749
251749
1084719
447909
2510464
1084719
176652
2014434
754042
2716352
251749
2801477
444860
2041344
2510464
455364
444860
455364
251749
1084719
446529
2041344
268746
1084719
880159
889956
251749
2686251
2686266
2547425
376849
1392231
2801477
1917232
2716351
687803
251749
238854
754059
2041344
455364
2041344
205869
2696379
251749
2801477
1168478
205869
455364
2041344
2510480
2510464
2041344
455364
320837
749413
1206110
1051675
445684
2696426
320837
2283267
1913034
455364
196242
2743826
2027905
1084719
2686251
2041207
948071
1493511
2283267
2686266
196242
251749
2023996
1283076
444878
2686266
1573458
2590946
2593360
1838075
2491321
2023992
2716351
1283077
1883366
2686251
765765
2491321
2014434
2743781
2801477
2491321
2801477
2027899
1557033
753084
2014434
1527519
2041344
2686251
2686246
1084719
2686251
2686251
2716351
2686266
2743781
2772511
268747
2801477
2041344
455364
380598
948071
536444
1283076
2772511
2686266
1168479
1392231
2686266
1493511
1873777
1168479
455364
1283079
455364
2716351
445696
2023996
1168478
2014434
444860
1168479
380598
446529
2023996
380598
2743781
1150991
755272
445686
2801477
2686251
1329402
749413
2801477
294631
2801477
2801477
205869
754042
455364
445700
294631
1283076
755272
455364
869662
2743781
889956
1873777
2686266
1536592
2801477
2686251
2023996
2024264
2743781
2801477
1542477
2716351
264729
2041344
2686266
2510464
238854
2593351
181082
1392231
1026955
880162
455364
445700
10276
908819
1283076
2070181
948071
1557033
693272
2041344
2743781
2686251
754048
2562175
207656
1168479
1168479
2491321
1880590
2801477
754059
2562175
1392231
2547425
1168479
2510464
455364
2743781
1084719
446529
2565696
446529
2686245
1586713
2801477
59241
2590946
455364
2743826
1392231
2510464
2041344
2565696
2036055
2743826
1557033
1084719
1211278
2041344
2686251
2686245
2041207
2070181
2041207
2070181
2041344
2015853
2743826
1815522
1084719
2743781
1983784
2716352
2801477
2686251
2510464
2041344
320837
1084719
2510464
2743781
1586715
455364
181082
754059
455364
2041344
320837
1084719
446529
294631
753084
1168479
2686245
2107709
2182319
1586713
181082
1917232
455364
2070181
321023
2686251
2014434
2743826
455364
446529
642926
1983536
2070181
2686251
205879
446529
1590550
1168478
1335230
1557033
251749
2801477
251749
1084719
1873777
251749
1084719
139871
2686245
2686251
2686245
455364
294631
455364
1917232
455364
2801477
2801898
496874
2712958
2070181
1557033
1493511
2801477
1168479
2014434
2070181
251749
10255
1084719
1168479
1325731
2099637
2107707
889956
1168479
2686245
382685
754067
2024264
2801477
1838072
2801477
444860
1486472
2023996
665032
2743826
445696
2590946
445686
755272
2010329
2686273
458639
2510464
458639
1392231
2743781
2743826
445683
455364
2743826
1168479
455364
2801477
1815521
2801477
1792032
268746
1335230
2686242
1392231
1392231
10255
445686
2801477
380598
573174
755272
1327971
1557034
251749
446529
2801477
2041344
1042122
2716351
1084719
335797
205879
753084
749413
268746
2723773
1042122
340435
455364
1283077
2023996
455364
642926
1557035
2716351
1042122
1084719
1042122
2801477
1168479
2686251
455364
2041344
1329402
446529
268747
1042122
2100130
1885242
2686251
1278485
251749
2801898
2686245
1357714
1392231
1283076
2491321
2743781
1084719
1168479
1042122
2510464
445700
755272
2772059
2743826
1586714
1335230
455364
753084
1042122
2686251
2686251
1168479
2590946
1573458
2024264
445700
1084719
2686251
1335230
1814287
1434319
2686251
2686437
2107709
2716351
446529
2565696
10506
2023996
2268578
2743801
2590946
2743826
1340709
151539
251749
2801477
2801477
2743826
2801477
2024264
2801477
756280
251749
1279082
251749
446529
10506
1527771
880159
10506
2716351
2100130
1586713
1076255
2686245
1150991
889953
2801477
2041206
2801477
1462608
331278
2686245
264729
948071
754042
445700
2743781
2743826
880159
2801477
2716351
12643
2801477
2686251
455364
268746
446529
1335230
2041344
2041206
693272
1917232
445686
2686245
1283076
2686266
2743781
1917232
948071
268746
1168479
2801477
2801898
2716351
2023996
1524882
2590946
2023996
251749
2041344
880161
2182319
2801477
948071
691965
2686245
446529
2070181
1493511
335797
2686245
1407493
445696
2686266
1168479
2725629
1168479
455364
2767584
754042
756276
2059882
2041344
10506
455364
2716351
2801477
181082
1168479
2070181
573174
2510480
2686247
251749
1283076
1917232
1917232
753084
322019
1084719
2590946
10506
446529
2565696
2024264
446529
446529
2716351
1493511
2743826
2565696
238854
2547425
1283076
2041344
2041344
1897437
948071
1883369
2024264
1150991
455364
889953
1168478
557289
446529
2743781
455364
1917232
1283077
382359
446529
754042
2491321
2686266
1883369
455364
2590946
1392231
446529
948071
380598
2696426
2686266
320837
691965
251749
1168479
2686266
2099637
2743801
251749
754067
2686266
2801477
869662
754042
2041344
2041344
1340810
1897437
2686247
2716351
889951
2079426
446529
251749
691965
2801477
446529
880161
2070026
910474
458639
1349409
268747
2686251
458639
2743826
948071
458639
10276
889956
1042122
2801477
2182319
1136535
251749
455364
445696
1873777
2686251
2268578
2686251
2041344
335797
1168479
2716351
2547425
251749
444859
1873777
1962671
2743826
1042122
1168479
1917232
2590946
1168479
1557033
2686251
749413
1392231
1567014
2801477
455364
2510464
1168479
909297
2283261
1392231
1168479
2716351
139871
251749
1283076
2584487
1796997
446529
2686245
2590946
1301280
1493511
1283077
1168479
2743826
2686251
889953
1168479
1586714
2686251
2686245
749413
2743826
948071
455364
1329402
2041207
1814287
1917232
1527771
1493511
322019
2491321
889953
754042
1150991
2743826
1127518
2024264
2743781
2686266
1327983
455364
1821566
2716352
2041344
1542477
446529
2743826
2686266
2079426
2801477
2686245
2801477
1814287
2041344
1051675
2510464
1335230
1873777
2590946
2716351
1168479
320837
2743826
455364
2686245
2041344
2801477
2716351
1572745
2070181
2491321
536444
2801477
2024264
455364
1391188
2686251
268746
151539
1335230
114777
2052742
1327971
251749
2716351
2070181
2491321
2801477
1168479
1821566
1349409
590739
1391188
1349409
1168479
2686251
447909
2686251
590739
2070181
1168479
1168479
1493511
755272
455364
2301529
2041344
2491321
1026955
1557033
691965
2590946
2801477
754048
1493514
2070181
455364
1327037
2716351
444876
445688
1327985
2686247
2686245
754042
1340812
151539
251749
2593360
446529
1357714
2301529
2041344
2041344
2070181
2590946
546805
2599764
2743781
2767576
251749
2510464
1557035
1541823
1129147
2686245
2743781
2590946
251749
2027899
2041344
2079426
335797
2686251
756282
455364
2686245
1283076
251749
335797
1392231
455364
2716351
2686251
2686245
1168595
2590946
2023996
2686266
1168479
1873777
1586714
2023996
340435
1168479
455364
2510464
1873777
445700
1168479
2593351
2024264
869724
2014434
1880590
948071
340435
2590946
754042
1327981
1838079
455364
2510464
1873777
1555202
1301280
2743781
2024264
2510464
1590550
2510464
268746
1796997
2510464
1493511
2743801
1573458
2510464
458639
2590946
2079426
2234093
1821566
2801477
1168479
693272
2024264
2510464
445700
380598
445700
2772078
2741075
754042
2510464
455364
1472912
2510464
2772079
2510464
455364
2041344
1541819
1168479
2801477
1084719
2510464
1084719
2510464
1880590
2510464
1392231
2024264
2686279
455364
2801477
1796997
1084719
693272
2510464
1449437
2716351
2743826
455364
2510464
455364
2510464
1168479
1168479
455364
458639
2772079
2741075
2510464
693272
1150991
1278479
2510464
10256
2510464
2741075
335797
2510464
2510464
693272
2510464
2801477
2510464
693272
693272
1586715
2801477
1796997
1557034
2510464
1168479
2510464
2801477
2801477
2743826
446529
754042
2686247
2772078
1335230
2686247
455364
1332145
2510464
756275
2510464
693272
2590946
1147094
1084719
1392231
2510464
861045
2686279
1335230
455364
251749
2491321
2740801
2023996
251749
2801477
2743826
2653270
458639
2743826
1493511
2716352
2741074
1349410
504346
321023
2023992
1392231
1168479
1557033
455364
1283077
1168479
1084719
1392231
455364
455364
446529
1897532
880159
536466
446529
413066
1917232
2686266
1556290
2801477
1542477
691965
1493511
455364
2557582
1335230
753084
2686266
1883366
1557034
1168479
1792032
2801477
2041344
2716351
1051675
1392231
1283076
455364
2510495
590739
948071
445700
948071
1136535
2686251
1335230
455364
1335230
2686251
2590946
2801898
2565696
320837
1283076
590739
1168479
1168479
2801477
948071
455364
1084719
455364
46021
642926
1141136
1586715
1340812
2023996
2743781
754064
1917232
2801477
1557034
693272
749413
1527524
1340812
1168478
445700
2716351
2686266
2041344
536453
2301529
2686266
1327758
455364
2686245
2048977
1527524
2079134
251749
84739
1349410
455364
151539
1283076
2686251
1493511
1327990
2801477
2801477
2590946
251749
2070181
2565696
1873777
2041207
2079426
251749
1586714
455364
1392231
2023996
268746
151539
2743781
755272
880159
1838075
1168479
696472
1527524
756275
2675257
2491321
2686266
2716351
455364
2801477
2024264
2716351
1493511
2686245
2801477
2686245
2686266
444860
2686245
2686245
1916123
1168479
10682
1168479
455364
251749
445700
754042
1052673
2801477
2686251
755272
1168281
455364
1883369
455364
455364
1283077
2801898
2759732
268746
2491321
1204543
1557033
889951
590739
2743801
2686245
2036055
455364
2686247
1048189
754042
1042122
2079426
948071
1084719
455364
1084719
1557035
1168479
2716351
2743781
2801898
212035
1220714
1814287
2772511
455364
2686245
2716351
2686245
1084719
445686
1913591
2023996
2716351
115987
2686251
251749
2590946
444859
2686251
2593638
1150991
1392231
446529
2024264
2041344
1042122
2772059
2686245
446529
2772059
2686247
2686266
1168479
1392231
1168479
2801477
2686266
2686251
2024264
1838075
2023996
294631
1392231
1883366
380598
294631
2716351
2593356
1042122
948071
1493511
294631
2686245
445686
1273711
889951
444860
445700
1168479
2801898
1883368
1493511
1042122
889951
251749
2743781
1105171
251749
2041344
455364
2716351
1042122
2801477
889951
294631
1036616
536453
1168479
455364
294631
1052673
2772511
2716351
2079134
294631
294631
251749
294631
2686247
2801477
251749
2743781
948071
2801477
294631
251749
1084719
294631
2079426
1168479
1283076
889953
1792032
10276
1042122
1042122
294631
2743781
2743781
1042122
2590946
1042122
2743781
1042122
1283076
10276
1392231
294631
2743781
2743781
1283076
1814287
2686251
1527524
2741073
2743781
455364
1051675
1392231
1883377
455364
754042
2743781
1493514
2759730
251749
294631
251749
251749
1873777
446529
294631
294631
1168479
2801477
2301529
2801898
1557033
2801477
1283079
445700
455364
1557034
2743781
2743781
1042122
880161
2686245
251749
294631
10704
2070181
294631
251749
1168479
2743781
2801477
294631
251749
1557033
2743781
294631
1168479
268746
880159
251749
268746
2801477
2686251
2772511
2686266
455364
1168479
2686245
455364
2716351
2070181
546805
2686245
2686266
753084
1273746
455364
1084719
2041344
2268578
2801477
755272
2593351
2686245
754042
2686247
2593351
2716351
1557033
1392231
1283076
2686251
294631
445686
1567005
1589733
455364
880161
444860
2041344
753085
2686266
2716351
446529
1283076
753084
546805
2801477
2070181
2716351
546805
445700
1392231
2593351
1168479
2315608
455364
251749
444860
2801477
2801477
2716351
2590946
551895
2593351
546805
889956
1586715
251749
755272
2510464
10276
2510464
2686251
2801477
1084719
251749
2041344
2678601
1917232
251749
2743781
455364
2686251
2590946
2716351
590739
2686266
1168479
2026080
1885242
754042
1917232
2686247
10506
2743781
2041344
1168479
665032
1168479
1524882
2743801
251749
948071
1815522
2743826
444860
2590946
1524882
251749
2023996
1283076
2510464
1168479
2686251
1273752
2686266
2686251
180504
1327971
1168479
754044
2743826
1084719
251749
1392231
2743781
2759720
1168479
1873777
1815522
1838074
455364
1392231
445686
749413
2041344
455364
1557033
1567014
1084719
1573458
687803
1168479
1273752
590739
755272
2686279
444860
2686279
2070181
455364
1913591
880159
1168479
1127518
445700
2743801
2023996
2743781
2716351
455364
1084719
2686279
251749
72201
2024264
2686251
446529
1449437
1557034
2070181
2686279
2801477
2686279
444860
2590946
2419946
1335230
455364
2024264
1917232
151539
2686279
233894
268747
251749
2686279
1527524
2079426
2743801
1308897
1391188
2716351
2743781
1493511
2590946
2772078
294631
1586714
2079426
2014434
444860
2801477
2014434
1917232
2590946
2716351
2686279
2014434
455364
2686247
251749
1540091
2686279
2772511
2491321
2801477
2686247
2686247
1917232
455364
455364
1883369
2686247
2686279
754042
754042
2686279
2491321
753084
2686251
1327971
1557035
2740801
1392231
2716351
2743826
2510464
445696
693272
458639
2686251
2716351
1917232
565140
1873777
455364
2491321
2041344
754067
2686251
1883369
2743781
2716351
1792245
2767588
2743826
2491321
1815630
322019
1796997
455364
2023996
445696
455364
2801477
2301529
264729
458639
2686251
2023996
2716352
2801477
1557034
2743781
2590946
2041344
2686251
2801898
2801477
1392231
35241
447909
2743781
458639
2686247
2686242
2024264
10506
1542477
322019
1493511
1557034
2590946
2801477
268746
1168479
2023996
2716351
2716351
446529
380598
1392231
2772511
1084719
1141136
948071
1392231
1168479
268746
233894
880159
693272
251749
2801477
2686245
2562175
2686251
889954
1821566
2801477
1883365
2686245
1168479
268746
1883365
994601
2023996
948071
2801477
2723773
469660
2023996
1917232
2801477
1127515
754067
251749
2767584
2686245
2801477
2686247
754059
251749
268746
380598
2741073
1917232
469660
205869
2743781
536453
2053702
889956
2801477
1792032
444875
455364
273133
2723773
455364
2801477
181082
2491321
693272
663557
2801477
1392231
2686245
1792032
455364
1392231
1917232
2686251
2686266
251749
1493511
948870
2686245
1873777
294631
1880590
2686251
2686246
1880590
196242
2268578
1168479
1168479
2041344
194699
455364
444861
755272
2686245
1168479
114777
2590946
880159
880161
212035
2023996
557289
455364
1283076
2268578
2052742
504346
455364
446529
2801477
2801477
1557033
455364
1913591
458639
2023996
1147094
205869
2743826
2801477
948870
1168479
2801898
406340
1187128
691965
1572745
212035
2686245
753084
1269028
756275
2801477
114777
2491321
160796
251749
196242
749413
458639
1042122
455364
114777
1472912
1084719
2801477
2590946
2686245
2014434
1084719
2675257
2041207
2801477
455364
1042122
1168479
2041344
2743781
1407493
756282
642926
455364
380598
1168479
573174
1168479
889951
2759727
2048977
1838078
889956
880159
2041344
755272
1283076
1168479
1042122
380598
1042122
1349409
2070181
1589751
2743826
2716351
2590946
696472
1042122
2041344
984175
148943
1283076
115987
2250335
10760
2686245
115987
446529
2743826
455364
1917232
754064
2023996
2041344
2743826
455364
1542477
2510464
444860
984175
1392231
2686266
948870
2716351
2686245
1283076
455364
2772511
573174
2547425
1557035
2723773
2419946
2079426
2716351
2699738
2801477
2716351
2801477
2801477
1917232
2801477
445684
2801477
590739
1042122
2026102
115992
2743781
2686245
1557034
2772511
251749
2716351
445686
1542477
753084
2801477
2686245
335797
455364
251749
1557035
880159
2686266
754042
1211644
693272
1168478
984175
2801898
455364
1168479
2686245
1327974
2801477
1880590
1917232
2024264
642926
2696426
2686245
1814287
2023996
181082
2070181
590739
2686245
2801477
1168479
2268578
2686245
2023996
696472
2686245
1796997
1557033
880161
46242
642926
1392231
1392231
251749
1168479
691965
1536592
2041344
455364
2686245
455364
2023996
1168478
1883369
444860
1815968
196242
2801477
2491321
2023996
2510480
2801477
455364
2100130
2801477
1392231
2686245
2686245
2686242
2590946
1329402
753085
2801477
294631
2686266
2801898
2801477
1796997
1472912
2743826
251749
2686247
251749
2036055
1392231
2686245
2801477
1269028
2801477
1283076
455364
1557033
97195
754044
2590946
2686251
2510464
444878
455364
2686245
2716351
1150991
455364
2686245
2801477
444860
2686247
1329402
1527512
1958956
2023959
2801477
2686266
2801477
1150991
2547425
455364
948071
1137745
2801477
2801477
754048
447909
2686242
446529
455364
1168479
2678601
455364
1542477
1796997
1917232
2801477
455364
2686245
1498212
446529
455364
2079426
1917232
1917232
2743826
2696426
2686247
212035
2801477
2801477
2801477
2801477
212035
2510464
754042
2801477
340435
2686266
1542477
114777
212035
2041344
2801477
2743781
2686247
1168479
340435
889953
1279082
1572704
2801477
1498212
691965
458639
2686247
2048977
1168479
2772079
2686247
1084719
455364
445700
1168479
10256
417280
2801477
2686247
251749
2762400
2716351
1392231
2686245
2801477
72201
444860
948870
2041344
1498212
444860
251749
1913591
438482
1983572
2801477
2048977
2686245
1883369
948870
2801477
2801477
2686251
2686242
2686437
754048
2801477
2686245
2716351
658401
2801477
2686247
1042122
2716351
1168479
1204524
2801477
2801477
2801477
2079426
2801477
1474867
2801898
2801477
1168479
2801477
1349410
1815630
114777
2801477
1586714
340435
658401
2716351
1572704
322019
889951
446529
2686437
1392231
455364
2686242
2686245
455364
2686247
1557033
2593351
2801477
2801477
2801477
765765
2801477
1873452
2801477
1327758
268746
2801477
251749
2801477
445700
1168479
320837
251749
1150991
2801477
2686251
2801477
2686242
2053812
2708562
2743781
2716351
2686245
1084719
756282
1329402
1328030
1084719
2801477
2801477
2801477
2593351
2023996
2070181
1392231
444860
1883368
238854
2686245
2041344
181082
455364
320837
279383
1557034
1465751
1557033
1392231
455364
1962671
335797
2601643
2686266
2283025
2041207
1283079
948870
1051675
2716351
2530160
455364
749413
455364
1328030
2743826
2599764
2708562
294631
2014434
151539
2593351
2772511
2590946
2041344
2023996
2772511
251749
2801477
2686245
322019
2547425
2686251
765765
2801477
889953
2801477
455364
268746
754042
2801477
2772511
2686245
455364
2686266
340435
2772511
1349410
445700
1590550
2801477
1328030
1557033
2686266
455364
2491321
2686247
251749
2772511
1283079
2686251
1586715
445696
1527524
1349409
1557033
1168479
2590946
2510464
1357714
268746
1586713
251749
2686251
2801898
1168479
573174
2686247
1168479
1542477
322019
754064
1955558
1392231
1168479
12643
447909
693272
2686266
444860
455364
880161
2686247
455364
2041344
2686279
1873777
2015834
2048977
447909
10732
2801477
2686266
2491321
749413
1168479
268746
1881104
2686245
1883368
2686437
573174
2686437
1084719
1332145
2686266
251749
1873777
1329402
455364
1917232
1392231
889956
2053813
1168479
2014434
2024264
2743826
335797
455364
1792032
2716351
2686266
693272
455364
1084719
2491321
1917232
10276
2079426
455364
1586713
455364
1283076
1168479
2801477
455364
1168479
2801898
1136535
1084719
2023996
1357714
948071
2545435
2686245
446529
251749
754042
1567014
2593360
2743781
2743781
444860
1084719
251749
268746
2024264
1084719
1168479
72201
1084719
251749
753084
1084719
2491321
2027899
445692
948071
1557033
1084719
1392231
1084719
268746
2686245
251749
2801477
2801477
2696426
251749
1084719
889951
1084719
754042
2801477
455364
2686245
251749
2591041
2741072
2801477
2801477
251749
251749
1052673
455364
431894
380598
1883366
251749
2491321
2604899
2801477
2801477
2023992
1084719
268746
2041344
2041344
1168479
1472912
2041344
1283077
251749
2024264
2801477
1084719
754067
2801477
2801477
1084719
756276
1168479
948071
1084719
1084719
2283026
2686245
687803
1147094
251749
1084719
948071
1084719
1084719
205879
139871
2562192
251749
251749
455364
2182319
1084719
1821566
2801477
2801477
1917232
268746
1357423
1168479
642926
2801477
2801477
1472912
2686251
242527
1472912
1084719
754042
1084719
1084719
1590550
2801477
1084719
444860
1084719
1084719
1042122
1589751
1590550
2686437
1168479
46021
1283076
455364
2267403
2743781
2686245
2686437
2675257
2590946
2743826
2590946
2686247
1821552
2107707
1273711
1329402
444860
2593351
2743826
1033977
2686251
2686251
1042122
2041344
455364
2801477
693272
756275
2593351
321023
2772511
251749
2593351
1042122
1042122
2593351
251749
2079426
1168479
2801477
1084719
2716351
431892
321023
1278479
2686247
1814287
2593351
329864
2029657
2801477
2686251
1328030
335797
756280
2801477
1168479
2716351
1472912
2041344
2024264
446529
446529
1042122
455364
380598
2593351
2593351
754048
2686251
2593351
2686437
1084719
696472
1042122
2801477
1792032
1852625
2686251
1814287
2593351
455364
1557033
1448273
2079426
2743801
2593351
2686245
2686437
2743781
1392231
2593351
10273
321023
2593351
2041344
1493510
2743826
1493509
2801477
2743781
2686266
1880590
2772511
2686245
1493511
455364
2599764
1168479
2036055
1168479
2801477
1168479
2801477
2014434
2686245
2708562
2675257
2743781
1084719
642926
2036055
1392231
1168479
1168479
1881104
2696426
1572745
1211278
2743826
2743781
455364
2743781
2801477
1168479
2772074
1084719
2716351
2100130
10506
1486472
948870
1392231
445686
2593360
1084719
1168479
2024264
590739
2070181
455364
1814287
2010329
2743781
1897532
2100130
555387
2070181
2686251
2686247
889956
754067
1283076
2743781
2686251
2686245
755272
1917232
445688
2686251
948071
2686245
2801477
2024264
2686266
340435
264729
755272
1542477
10256
1897532
1168479
1168479
1168479
2801477
268746
2759732
2510464
2100130
2029657
1168479
1084719
238854
1557033
2053813
2282904
1557034
294631
2079426
749413
948870
2686247
205869
2686247
1084719
1168479
2048977
2041344
2491321
1527512
1796997
2696426
2041344
642926
2510464
2759732
1527524
1168478
1913035
2036055
2070181
1527512
205879
2070181
2014434
2488789
984175
2048977
2686245
1897532
2743826
2704033
1168479
446529
880161
2483670
2716351
889956
2686247
948071
1349409
1349409
754042
1349409
455364
2041344
2686251
2041344
322019
590739
2036055
2801477
10506
2686245
1572712
2686251
2023959
573174
2743781
573174
1524882
2801477
754042
1273752
1335230
1474867
1168479
212035
455364
948071
212035
948071
2686266
2686245
1349409
2686251
10506
590739
756276
573174
2023994
10506
2686251
2686266
251749
2686245
1917232
1392231
1572712
354260
1590550
2686245
2491321
2268578
268747
1421067
1327990
1168478
1124654
2653725
2743781
2079426
1917232
2419946
1542477
455364
2772511
2590946
455364
1168479
1796997
1542477
2686247
447909
2686245
1150991
455364
1357423
2686266
382685
1873777
2686245
590739
2024264
268746
1335230
2182319
2801477
2801477
2593351
251749
1557034
1392231
1357714
1084719
1042122
2686242
1557033
455364
1168479
2510464
2510464
590739
1392231
1883366
1815521
2686242
1340812
546805
455364
455364
455364
755272
2041344
264729
455364
1392231
455364
268746
889956
31535
455364
455364
2686242
251749
2801477
2716351
1327758
2716351
455364
455364
2010329
2743826
754042
1474867
2014434
455364
1168479
251749
1084719
1493511
2545435
1590550
984175
1392231
1042122
889956
1572712
1340812
10506
455364
151539
2079426
455364
455364
455364
2053701
455364
66284
2686266
446529
1084719
1084719
2234093
2686251
1168479
2686266
455364
1542477
753084
2107709
268746
455364
2801477
2491321
455364
2686251
382359
2716351
455364
2686242
1034116
455364
2801477
691965
1567012
1357423
455364
1392231
2675257
1917232
2686247
880159
380598
455364
2716351
1883369
2545435
455364
1042122
1557033
1136535
2716352
2048977
754042
1557035
1327971
444860
1283076
10256
754042
1883366
444860
2686251
691965
754042
1168479
2801477
1873698
2048977
10256
2801477
455364
268746
251749
2772511
2743826
1168479
2686245
2741075
2675257
251749
590739
1283076
984175
1891703
2686279
1557034
2491321
2024264
2686266
1168479
10276
1392231
565140
2801477
2653725
1349409
455364
455364
1392231
2716351
322019
2144176
2653725
1283079
1052673
1168479
251749
2686245
1493514
194699
1883365
2144176
2653725
2772511
251749
455364
2686266
2716351
2801477
2510464
2686245
2144176
2070181
1883369
2023996
2743781
565140
1035662
2107708
1557034
268746
1392231
1084719
181082
1392231
754067
2686266
2801477
380598
1557034
268746
1168479
1493511
1815630
2510464
445696
889951
1873777
1542477
1493511
2716351
2801477
2686245
1392231
10256
1586714
2686266
2023996
2070181
1880590
1792032
1392231
205869
1392231
2070181
1327037
2593360
455364
2686247
455364
1283077
2741073
251749
1917232
2725629
320837
755272
2023996
691965
2079426
2686251
205879
880159
2686251
1392231
2801477
948071
444860
1051675
2801477
2801477
1168479
444860
1572712
2070181
2743781
2491321
2801477
2510464
2801898
2052742
2686247
2301601
2686245
1051675
2686251
2801477
2801477
1168479
1283076
2801477
2686247
75320
889956
1220601
2686247
251749
2801477
756275
2510464
2686247
2743781
1327971
2686251
1042122
2070181
2144176
2686251
2725629
1349409
2590946
1283077
1168479
889956
1474867
1934252
909297
1042122
251749
1357714
936152
1557034
1917232
889951
1392231
693272
1335230
2483670
2801477
1168479
2801477
1168479
2023992
2483670
1168479
1340812
1548906
749413
694581
1042122
2743781
2743826
2743826
2801477
693272
1472912
2182319
754042
1161935
1204533
1084719
754042
2014434
1042122
2743781
2483670
2510464
1168479
2070181
693272
1084719
455364
616674
1168479
455364
2014434
2743781
756275
294631
2696426
694581
2488571
2686245
469660
251749
251749
2801477
936152
2593360
139871
294631
2565696
1392231
1168479
1472912
1796997
2483670
1283076
1283077
2801477
221029
2070181
1042122
2686247
2053702
948071
1168479
754042
1283079
573591
1168479
2024264
2041344
2801477
1472912
1042122
2686279
1472912
2107709
2801477
2079426
1197951
264729
2801477
2743781
1084719
1168479
1340812
2024264
2743781
455364
2686266
1168479
1168479
2041344
2716351
1301280
251749
238854
1084719
335797
2510464
1161935
2686245
2070181
455364
1084719
1327990
948071
755272
455364
2604899
1917232
984175
2014434
251749
1051675
1168479
2023996
754044
2686251
2686247
97195
1168479
2743781
251749
1283077
2686245
251749
2686251
2801477
1392231
455364
2801477
1283076
2023996
455364
2801477
1168479
2029657
2041344
755272
880159
2510464
2023996
2743781
445700
446529
455364
320837
2583039
1168479
2686251
2686251
455364
1392231
251749
2686245
2801477
2041344
238854
1283076
1555202
1084719
1917232
380598
2041344
1327972
423476
1557034
1177632
2704033
1168478
1084719
1328030
455364
2484217
1917232
2268578
889956
1147094
251749
445700
2070181
458639
2590946
755272
1557034
1555202
382685
268746
2023996
1557033
2801477
1084719
2419946
2014434
2024264
120574
984175
2686251
268746
1168479
2716351
2801477
754048
2801477
2182319
2023996
755272
984175
2686266
1168479
994601
194699
455364
1557034
2741074
994601
1821566
2036055
1177632
2686245
2593360
2041344
2024264
1586714
2801898
1204524
1917232
984175
1392231
755272
2048977
1269028
120574
455364
2023996
1084719
455364
889338
455364
455364
2686251
1349410
948071
754042
438482
2023996
1883368
1327758
2801477
2686242
115992
2041205
1493511
1084719
755272
2801477
994601
1168479
2491321
889951
2686266
1129145
1084719
2716351
1392231
1557033
268746
2070181
1116482
2079426
238854
2801477
2590946
1327758
2801477
120574
756275
445700
455364
2036055
2079426
1084719
1168479
1340810
2801477
2053813
455364
2510464
268746
2686251
2686245
2772084
2144176
212035
2686245
1493511
2759732
1814282
1572712
1557033
2014434
2743829
1814287
2686245
2686273
2801477
2601680
1168479
1557034
1084719
749413
444860
205877
2716351
1150991
445700
880159
2686266
2686245
194699
2686245
268746
1814282
347324
1087482
1885242
321023
10276
2079426
2801477
2565696
447909
2686251
1907784
445688
2801477
2686251
251749
1814287
1838072
2686247
999883
2772511
455364
1392231
2686245
1962671
2686245
251749
268746
753084
1392231
2686245
2686266
380598
2686279
2801477
205869
1392231
1168479
444860
2510464
1792253
268746
936152
889953
2686245
10506
1815521
1168479
1147094
345201
2686245
2510464
1792253
31535
754042
1392231
2772511
1084719
2801477
1084719
268748
1792253
2716351
455364
2801477
1557033
251749
1555202
2023996
642926
1325731
1391659
251749
1283079
2027272
2686266
1917232
1036616
2593351
1392231
2014434
461711
455364
2772511
455364
1084719
455364
455364
2772074
1278479
1590550
2144176
2014434
2772511
2801477
2686245
754037
251749
1168479
2079426
2686251
2716352
2801477
2716352
2801477
444860
447909
1168479
444860
444860
2801477
2801477
447909
2547425
880159
2010329
2041344
889956
755272
2023998
2801477
455364
1883366
1907784
2024264
590739
2491321
2686266
1136535
1283076
1962671
2686266
754048
1283076
948071
1084719
1917232
268746
1168479
268746
2144176
1150991
948071
268746
1557033
2743781
1168479
1283076
2801477
755272
2686245
504346
2801477
455364
2023994
1168479
693272
984175
2801898
455364
455364
929832
1168479
889338
1168479
2708562
754042
2686245
10732
251749
1557034
1269028
1168479
2686251
948870
251749
2024264
1557033
1873698
455364
2023996
1327971
423476
1269028
1084719
1084719
1168479
2716351
1493511
268746
749413
2743826
754042
2023996
1168479
2801477
642926
2801477
2041344
2301715
1168479
1557034
2801477
1168479
2801477
2491321
1392231
1084719
2772078
115987
2686279
1168479
1557035
2593351
115987
251749
1168479
2801477
1327971
1168479
755272
2079426
238854
1327971
2070181
2023996
251749
1917232
909297
455364
2144176
1168479
880161
251749
1557033
1308863
1052673
321023
1269028
1917232
1168478
2079426
273133
115987
455364
2653725
445686
565140
251749
1392231
455364
1498227
2686245
1168479
2801477
1325731
1042122
455364
1168479
455364
1168479
2510464
880159
2801477
2686247
755272
565140
2686245
444860
340435
444860
2801477
880159
756276
1168479
2041344
2686245
1465751
251749
1084719
2283265
2015853
755272
2801477
10732
2048977
754041
2801477
1084719
1913591
2801477
2589658
889956
1557033
251749
251749
2772059
1129146
455364
1589733
2743781
1042122
97195
255131
2024264
2491321
2686245
1283076
431894
754041
2772059
889956
2801477
1557033
455364
2510464
2545435
31757
2070181
1814287
322019
1168479
693272
546805
2419946
251749
2144176
446529
455364
1141136
2653725
889956
1527524
1168479
2686245
2686245
2079426
2510464
444860
1873777
754064
1873777
251749
2048977
1301280
754064
2741072
251749
2510464
2041344
1527524
2743801
755272
196242
889956
1913591
2801477
455364
1187128
455364
687803
1527524
1542477
1917232
2781364
455364
445700
2686245
753084
2686247
2686251
2686251
754042
755272
455364
1392231
2201421
2686251
536444
2182319
1586715
1392231
455364
2023992
1168479
447909
294631
2743826
251749
1084719
2801477
2041344
2801477
754067
1195085
2041344
2678601
455364
2686245
2801477
251749
948870
1325731
455364
754042
2182319
2686251
1392231
2510464
2070181
1168479
1880590
380598
2014434
1168479
2704031
2048977
2044561
2801477
880159
2686251
293644
1168479
373126
2686251
1168479
2070181
1883368
2716351
2716351
2041383
1917232
1168479
1392231
455364
1168479
1586715
455364
446529
2686245
455364
2686245
880159
2801477
2686266
1084719
1392231
446529
749413
2014434
1168479
1392231
1962671
1084719
251749
205879
2023996
1392231
363555
2686251
2041344
2201421
444860
1084719
1815522
1392231
1084719
2801477
1168479
1168479
2743781
2590946
1168479
380598
1168479
1557033
2023996
1493511
1197951
1493511
1557033
1873777
1557033
2801477
1168479
2070181
2675257
2686245
2048977
2023996
2801477
2716351
455364
2036055
444860
1168479
1042122
10506
2686245
1557033
2801477
2686245
35241
2023992
2686244
1283077
1168479
2686245
1084719
49964
2743781
2686247
2048977
2283026
2048977
444860
97195
1572712
455364
1168479
2801477
444860
2268578
1168479
251749
2048977
2024264
1168479
1392231
2743826
445700
2686251
999883
2801898
1168479
251749
2510464
1392231
889956
1873777
444861
1557033
380598
2024264
2716351
455364
2041344
1883369
889956
2510464
445700
2696426
1084719
455364
663557
1557033
2686251
889956
2686251
1557034
1084719
1084719
909297
1327759
455364
2801477
2283026
2144176
2041344
2801477
2801477
251749
889956
1283076
2772511
251749
889338
691965
2686279
889956
1392231
2801898
2590946
1917232
2023996
663241
2491321
2686245
1283076
446529
1273752
889956
948870
2675257
1084719
889956
754044
268746
2772511
889956
455364
445688
455364
2743826
1572712
1168479
2557582
445688
2743826
2491321
1567014
2743826
2743826
1109713
251749
1814287
2234093
455364
176652
1557034
2801477
2510464
2743826
1283077
2301529
880161
455364
2743826
35344
2686251
2024264
2686245
1557033
455364
2079426
2743826
2024264
1349410
1814287
2686251
2743826
1557033
1557033
693272
1327971
1327990
2801898
169684
1168479
981335
1327971
880159
2743826
2743781
1327971
948071
1555202
2014434
2686242
1392231
2743826
2772084
1327037
2743826
2801898
180504
2014434
1168479
1392231
1493510
756275
380598
2041344
2743826
2024264
1838072
1283077
2015853
2664196
756275
2024264
1917232
2801477
445700
444860
2743826
880159
212035
268746
251749
1589751
455364
2686245
948870
2686245
115987
693272
2801477
2053723
2743826
446529
455364
2686245
1327990
2743826
1540098
1079998
1327971
880159
455364
2801477
1493511
1392231
2743781
2048977
2801477
455364
2686245
2079426
1116482
2801477
2743781
321023
2801477
212035
445700
2024264
2801477
749413
2686242
2743781
1328030
2801477
2801477
2801477
2743801
948870
251749
1168478
445700
2801477
2801477
2686266
2024264
2801477
455364
1486472
10679
2801477
880159
447909
753085
2686245
754048
2801477
399781
2593351
948870
2801477
2801477
2801477
151539
2491321
1327974
2801477
115992
2801477
2024264
2491321
2144176
2801477
2801477
1852622
2801477
1168479
2801477
1301280
2801477
2801477
1542477
2070181
2041344
698487
2801477
2686245
2491321
455364
2801477
2801477
380598
2024264
2686247
1327037
2801477
445696
2107707
2801477
455364
2801477
1168479
2510464
455364
2743781
2201421
2801477
212035
2801477
2801477
2801477
2801477
2801477
1084719
1325731
340435
2801477
1168479
1084719
2801477
2801477
2801477
455364
10679
1042122
1814287
1838075
2801477
2772511
2801477
2801477
2801477
340435
2801477
2801477
2801477
2743781
2686245
754037
455364
2801477
1042122
2801477
2801477
2070181
1042122
1042122
2593360
2801477
2686251
1084719
2801477
2801477
2686247
75320
2491321
2010329
2301621
2716351
455364
455364
2801477
2801477
2801477
2801477
999883
2545435
2014434
2079563
2743781
2686278
2675257
1792032
1885242
321023
1084719
1880590
1168478
2801477
445700
447909
1392231
115987
2014434
2053653
2070181
205879
2041344
2041344
2024264
2686247
1541819
2686245
2686245
1168479
2716351
1392231
2801477
2653725
2419946
455364
446529
1557033
2686245
2510464
446529
2023959
1325731
1917232
455364
2590946
1474867
1168479
1557034
2801898
2079426
2801477
948071
2590946
2014434
753084
1542477
1283076
1392231
909297
2801477
2686245
205879
2686245
455364
2801477
1392231
97195
455364
1168479
455364
205879
2079426
1283079
2686251
1283076
2530116
880159
2593360
1283076
2801898
2041344
1168479
2545435
880159
2686245
1474867
2015873
2014434
1084719
1283079
1527519
2041344
2041344
1392231
455364
2686245
455364
2772511
2041344
2686245
2716351
1168479
455364
1168479
2144176
97195
2268578
2488571
205879
2801477
205879
455364
458639
1815522
251749
2593351
2686245
889338
2070181
2014434
2772080
2686251
1917232
251749
756275
869724
251749
455364
2686245
2686246
2772078
2079426
1407493
1327990
1327971
115987
2686245
455364
1327977
1557033
455364
1283076
2772080
455364
2772080
2686245
1084719
251749
1815521
2023996
2070181
251749
205879
2024264
1917232
251749
880161
423476
1493511
1327971
1873996
2686245
444875
1917232
753085
1792032
2686251
251749
205879
251749
455364
2070181
1917232
754044
446529
1465751
880159
2675257
455364
1327971
2024264
1349409
880159
749413
2686251
2510464
1880590
1084719
2510464
1308863
1557033
380598
1327971
1327971
1168479
2419946
2048977
2801477
2686245
1327971
948870
2250335
573174
212035
423476
642926
693272
1557033
1392231
1932881
340435
1327971
1585840
2029657
1327971
1349409
255431
2041344
10506
1327971
573174
573174
2015873
2495553
455364
2686251
2772078
2250335
573174
2024264
2024252
445700
693272
2079426
455364
2801898
2491321
1168479
1327971
1917232
1917232
573174
573174
1527524
455364
2675257
335797
458639
1137745
753084
115987
1557034
1815509
573174
573174
2743781
1327971
1542477
2743781
10506
2686266
455364
1327971
1917232
2419949
1137745
2743826
984175
455364
1168479
1327971
212035
1392231
1168479
756275
251749
2686245
1168479
1917232
2250335
573174
1883369
2743781
445688
423476
2301529
573174
2675257
2686245
2772511
573174
1273752
455364
2675257
1557034
1269028
423476
1084719
1392231
1327971
423476
255431
2743781
1084719
251749
1585840
251749
2024264
1392231
340435
573174
2491321
1168479
2024264
1084719
1327971
251749
1557035
2801898
2686245
1585840
1907784
455364
399781
1392231
455364
1493511
2024264
1392231
2743781
97195
1557033
1168479
2053813
2070181
1392231
2070181
948870
1873777
10732
2686266
2716351
2015853
455364
948071
2801477
251749
1340810
2014434
693272
340435
322019
1572712
1176422
2716352
444860
2014434
1168479
35241
2675257
909297
948071
2801477
2743781
948071
1042122
2041344
455364
2716351
948071
1555202
2590946
1168479
2743781
948071
1084719
2024264
1269028
1493511
2053813
445700
2144176
455364
1283076
1283076
2491321
1168479
1084719
251749
1168479
1084719
455364
455364
1283076
1109717
1868826
251749
1524882
2510464
1572745
2759727
2036055
754042
889338
2686251
889956
2491321
445696
455364
251749
2801477
2590946
1042122
268747
205880
2801477
2686251
1573458
112023
268746
2801898
2584487
2041344
1392231
1042122
1168479
2023959
1084719
749413
114777
754042
2024264
455364
1168479
1327990
2801477
1586713
1327990
2686266
2023959
114777
2301715
2268578
948870
2041344
455364
948071
114777
423476
455364
2686245
1141136
753084
2144176
114777
1084719
1557034
114777
2686247
2686245
1168479
1168479
114777
455364
1084719
251749
268746
1527770
1327990
251749
755272
114777
2743826
1283076
2686245
536474
114777
1283076
1168479
889338
1168479
693272
693272
455364
1340810
1327990
754042
909297
909297
2801477
2716351
2801477
455364
455364
2024264
889953
1392231
380598
114777
1327990
1327990
2686251
75320
114777
2041344
238854
2801477
1392231
1327990
2686245
181082
114777
114777
2144176
151539
1392231
1283077
755272
1414742
2801477
1084719
1283076
2740801
455364
1917232
1084719
447909
444860
1327990
2686245
2510464
114777
2593351
1392231
2686245
2024264
181082
2686247
658401
2801477
455364
2801477
2772074
1557033
981335
455364
2716351
1586714
446529
445696
1150991
1557035
1392231
268746
756275
1493511
1173762
2593360
1168479
72201
2801477
2743781
251749
1168549
880159
1557033
2024264
2024264
455364
238854
251749
1572743
1962671
2593360
2801477
320837
150286
2065203
455364
2801477
268746
455364
1557035
1168479
2801898
1557035
1328030
2801477
2801477
2010329
2590946
120574
2491321
590739
1557035
1557035
2070187
2212563
2716351
455364
1815522
1536603
2053653
455364
2743801
294631
1392231
10506
455364
2781364
2801477
2696426
445700
1556290
753084
1392231
1572743
2065203
2301714
2510464
97195
2743781
2491321
1557035
205879
1269028
1084719
2041344
2716351
2743781
590739
2743781
2079426
1493511
691965
691965
1493511
151539
2250335
869662
2743781
1556290
2675257
151539
1392231
446529
1557034
1572712
447909
1327990
2801477
268746
151539
423476
2686246
2023996
1555202
2801477
151539
2510464
1084719
1084719
753084
455364
1042122
2801477
2491321
264729
455364
2510464
880159
446529
1147043
2743781
2048977
2510464
2686245
455364
2048977
151539
2743781
455364
2024264
446529
1042122
1042122
2510464
1084719
1542477
1273749
2801477
2024264
2743801
1814287
205869
2675257
2107709
2716351
423476
1168479
151539
2743781
2686245
2014434
1084719
1542477
1969841
2801477
2743781
455364
444860
2741073
1042122
1392231
2041344
445696
2686245
673839
455364
151539
2590946
251749
151539
251749
181082
2053653
2743781
2723769
948071
2686251
1168479
1273749
455364
151539
1084719
251749
1042122
2686245
2590946
2801477
2686245
194699
889951
2686251
2801477
322019
2743781
2686245
2716351
445700
455364
423476
251749
2801477
444860
445700
1273711
251749
2593360
251749
1141136
1273707
2743781
2801477
1392231
1349409
268746
693272
1536592
2741072
1792032
2801477
1392231
2801477
2686245
981335
2686251
2686251
889956
880159
929832
948870
2772078
693272
1880590
2024264
2041344
754067
2079426
2686245
755272
2801477
2510464
97195
2590946
1269028
2590946
2686245
1821566
2510464
455364
2686245
2250416
2801477
948870
2014434
984175
1590550
755272
948870
2686245
1283077
2801477
756275
1815521
455364
1325731
1283076
2686245
2182341
268746
2801477
880159
2530033
455364
445686
2801477
880159
2686245
1042122
2686245
2686251
2079426
115987
461711
1327036
2675257
251749
2491321
455364
546805
2510464
1555202
2014434
2316014
1327972
2743781
889956
2686245
2801477
889338
1084719
756280
1815509
2025360
1278479
2686245
2686245
251749
2686245
1283076
251749
1392231
251749
948071
2801477
2023996
2686245
2743781
1557033
1913591
546805
1079894
948870
10506
576790
2491321
455364
2048977
2491321
2593351
1273707
332032
1168479
2686245
97195
2591403
1542477
444860
948071
754042
2686251
1557034
1891703
2510464
1965368
1141136
880159
2499042
2488780
115987
754042
1084719
2686245
340435
1814287
2801477
1572712
756280
455364
880159
2023996
205879
1084719
322019
251749
1168478
2590946
889338
458639
2036055
1524882
1962671
2023996
1557034
455364
2686244
340435
2024264
2100130
2801898
455364
2686437
2686245
1913591
756280
1168479
1392231
340435
2772078
1283077
2686437
1141136
756275
1557033
2510464
756280
756275
1084719
889956
2315704
1335230
332032
2686251
1327971
2801477
2483670
455364
2024264
2740801
2686245
446529
1917232
2079426
2686251
1392231
2686245
1084719
2070181
2743781
1168479
1557034
2283025
1392231
455364
2483670
2108120
455364
251749
444860
1557034
1084719
455364
1392231
1340709
2772078
445700
2801477
268746
1792032
2107707
294631
455364
1168549
1821566
2686247
2041344
268746
2024264
1349409
1557034
590739
1084719
1229755
1084719
1880590
1392231
2686251
2801477
536444
1036616
691965
345585
1084719
1141136
1168479
1962671
445692
1792032
2741072
2510464
1357423
2510464
2686245
1349409
2041205
268746
2801477
1084719
1557034
2686251
444875
2801898
1168479
330397
423476
251749
1084719
1327758
2023996
1883369
1084719
754042
880159
268746
1392231
693272
2801477
1572712
251749
2743801
2801477
1308897
2593360
2801477
2686245
2686251
2491321
948870
1126885
2716352
2510464
251749
2801477
1168479
455364
1187128
1392231
251749
268746
1283076
1168479
2686251
1567010
948870
1168479
1211278
693272
756275
880159
948071
380598
320837
2053812
1109713
2510464
1026955
1883371
1557035
180504
2801477
2510464
1327990
1572712
1283076
1273749
10732
268746
1327983
1883369
1349409
1109713
1880590
1168479
2014434
1589733
1026955
889338
2675257
455364
1109713
320837
1392231
1542477
880159
2716351
2801477
1917232
2024264
753084
455364
880161
2743781
2510464
994601
1273749
251749
754042
2801477
2686245
2686245
2510464
948071
1472912
251749
2510464
2510464
2801477
1308863
2743801
749413
445693
2182319
380598
2743781
1327974
754042
264729
1586715
1168479
1917232
1868826
693272
455364
2079426
2041344
2070181
753084
444860
2545435
753084
455364
1557034
2686245
2510464
2041344
1176422
2510464
1329402
756275
2686251
754042
2686251
444860
2510464
749413
320837
756275
2510464
1168479
2716351
948071
2023996
1168479
2725629
1198013
251749
1530085
1084719
2686245
1273749
251749
1168479
1141136
1109713
2686245
1392231
2590946
1349409
1474867
2743826
2510464
10506
754059
251749
251749
2743781
642926
1590550
2510464
1392231
1838075
1883366
2743781
238854
2686247
2079426
754042
1586714
2704031
2686245
251749
1392231
2070181
1821566
455364
251749
1340709
445700
1187128
1392231
880162
1572712
1084719
889956
455364
455364
2801477
1283076
2593360
2686251
455364
1392231
2743781
1283076
2686247
743813
1557034
268746
1586713
2024264
1392231
2014434
2772511
1273711
1557033
455364
1407493
1474867
251749
251749
380598
1392231
251749
1036616
1821551
2590946
455364
455364
1392231
2801477
2801477
2743781
2686251
2023996
1283079
2801477
2686245
2801477
1327990
1392231
445700
2144176
754064
1821566
1084719
2801898
1084719
948071
251749
2801477
2530160
1168479
1168479
2686245
880159
2023996
2686251
889956
251749
1392231
1168478
1392231
1555202
1084719
444860
1392231
268746
1555202
2014434
880159
455364
2053812
880159
1168478
251749
2741072
2686251
1814287
749413
2801477
1283077
205879
2743826
445700
1168479
754044
176652
445700
455364
1283076
380598
2593360
1873777
2053813
230158
423476
2107707
1414742
693272
1557034
1327990
1042122
590739
2743781
1273752
2743781
423476
268746
423476
380598
2743826
455364
1357714
2743781
2686251
445700
446529
2250335
701257
1327971
251749
2743781
1392231
1042122
754042
212035
2801898
260149
1392231
2759724
458639
151539
696472
2250390
1493511
455364
754053
2801477
2743781
2686245
1567486
445700
455364
268746
1168479
1273749
1042122
2775045
1283077
2041344
1913591
1269028
2801477
2301529
2283303
2014434
754059
2743781
445688
2023992
2653725
423476
1493511
889338
2686247
1815582
268746
1792032
445696
455364
1168479
2801477
2743781
455364
1392231
2743781
2772084
2547425
2801477
1084719
2801477
2070057
1557034
1542477
455364
212035
2801477
2801477
1958919
754048
1792245
447909
1493511
2686245
2716352
455364
2510464
2704033
2801477
2743781
2743781
2653725
1129145
455364
238854
1283076
2801477
1327990
1042122
2704033
1269028
2772511
423476
2686245
1542477
1962671
2593360
2743781
2801477
1042122
1168479
2743781
1392231
340435
2041383
2023996
2041344
2686245
1477406
2801477
2023996
2510464
1392231
1792245
1586715
2510464
1349409
2510464
251749
423476
321023
1572712
1474867
2491321
455364
2041344
1883368
2070057
251749
2079426
1079998
2743781
1042122
2023996
1913591
1557035
753085
2743781
205869
2593360
1556290
1392231
2743781
2283031
455364
1042122
1557033
1137745
2743781
1042122
1133292
1883369
1815522
1325731
2023996
1815582
2801898
1283076
1572712
251749
2801477
2801477
1493511
1821566
2107708
2079426
1137745
238854
1042122
1168479
2686245
754042
10678
1980924
880159
1815582
2743781
2801477
2686251
445688
2268578
446529
423476
10506
2079426
1590550
423476
1168479
2052742
1392231
1792032
2010329
399781
151539
2530033
2801477
2696426
1349409
1168479
2716351
423476
10506
1815522
321023
1349410
1042122
693272
2686247
2023996
423476
1557033
1792032
1392231
2743781
1792032
1283076
2801477
2283031
1493509
1273749
1557035
251749
754042
455364
1557035
455364
754042
1448273
1557034
2419946
1283077
2024264
1084719
423476
2743826
693272
2590946
2024264
2268578
1168479
212035
444860
455364
445700
322019
1327758
444860
1883365
1542477
2590946
1084719
2590946
1486472
380598
268747
2801477
1392231
1557033
2801477
1814287
97195
1168479
2801477
2510464
1962671
2070181
251749
1486472
1917232
1883368
754042
2801477
251749
880161
446529
2014434
322019
754042
268746
1084719
1141136
455364
2315608
46021
251749
423476
115987
455364
1084719
268746
455364
880161
1555202
2801477
444860
1168479
455364
2023996
1536592
1821566
2686251
2743781
1084719
913183
1327990
2801477
445686
423476
205879
1573458
115987
1883369
2801477
445700
2743781
1590550
1084719
423476
2041344
455364
2023992
2014434
2545435
1557033
445683
1917232
2144176
756277
2510464
1557033
251749
115987
2801477
320122
212035
1175654
1168479
2024264
754042
2743781
10732
2583039
2743781
1572712
2041344
2801477
10678
251749
2014434
1883369
2743781
1036616
423476
455364
1283076
2743781
2801477
2079426
2801477
1150991
238854
2743781
2664196
115987
1792032
2024264
1168479
1168479
2801477
1349409
49964
205869
447909
2048977
658401
2696426
115987
1042122
1042122
1557033
2014434
1042122
1042122
1042122
2650877
1042122
1042122
1042122
2801477
1917232
320837
423476
1042122
1042122
1084719
2491321
1084719
1042122
1555202
2675257
1042122
754040
1168479
2696426
1042122
1042122
1042122
1590550
2070057
251749
908819
1042122
1042122
1327758
1042122
2014434
1042122
348137
1042122
1042122
320837
1042122
251749
1084719
423476
251749
1327758
1042122
444859
1042122
1042122
251749
1042122
1042122
1042122
445700
2801477
909297
948071
1168479
1042122
1042122
1042122
1327977
1042122
445696
754042
1084719
1042122
1042122
1042122
1042122
39838
2675257
889956
1042122
753085
1283076
1042122
1042122
251749
1042122
1084719
1042122
1821723
1042122
35241
321023
1042122
1042122
1042122
1042122
1042122
1572712
1042122
1042122
1917232
948071
1042122
205880
1042122
2079426
1042122
1042122
455364
1042122
320837
1042122
1042122
948870
380598
2590946
1042122
1042122
268746
1308863
2491321
1042122
1042122
1042122
251749
1042122
1042122
1141136
1042122
1572712
1327977
238854
1042122
2675257
2686266
2708562
1042122
1542477
2041344
2686251
1042122
1042122
1042122
1042122
1042122
320837
35241
2590946
455364
380598
1814287
2716351
1042122
1084719
1042122
1197951
2510464
1042122
1042122
1042122
753084
2686251
1042122
1042122
1042122
1042122
1042122
1042122
948071
1042122
2801477
1042122
2070181
1042122
1042122
455364
1042122
756277
1034101
1042122
1042122
2743781
2725628
1042122
755272
1042122
2686245
1042122
39838
1327974
268746
2053653
1042122
1042122
1042122
455364
693272
2686245
1042122
1042122
251749
1042122
1042122
340435
151539
1042122
2675257
2801477
1042122
2675257
1042122
1084719
1042122
1042122
1042122
1042122
1042122
2716351
251749
1042122
268746
446529
1042122
1168479
1042122
10506
1042122
1141136
10778
1340833
1042122
1084719
1042122
2675257
2743781
1042122
1042122
1042122
1042122
1042122
1042122
2686245
1042122
1962671
2675257
1042122
948870
423476
1042122
2675257
749413
1486472
2144176
1042122
1042122
1042122
2591403
948870
2743781
755272
455364
1392231
1557033
455364
447909
948071
2491321
2591403
1197951
2801477
268746
693272
320837
2716351
1815522
2686251
1557033
1084719
455364
242527
1392231
2491321
115987
10506
1557035
2743781
1567010
1168479
753084
445686
2510464
205879
1283076
2801477
2510464
455364
754044
1308863
1036614
205879
2801477
2024264
66797
251749
2023996
455364
880161
2686244
455364
948071
2653273
1927017
1327990
2079426
546803
2557579
1527524
2557579
1042122
1586714
2743781
1109711
1572712
2801477
31535
455364
190478
2510464
1278485
693272
1586713
1168479
2041344
2557579
2743781
2801477
444860
2653725
1084719
2023996
399781
2743826
455364
2772078
268747
2301529
268746
2686245
1883369
1084719
212035
2010329
1392231
1327977
1814287
455364
1557033
66797
2014434
1962671
2510464
984175
2801477
984175
1084719
444860
251749
2555548
2664226
754037
2024264
1084719
1204525
2653273
2041344
1327974
1308863
2696426
685506
251749
2743781
1913591
693272
445692
1084719
455364
380598
2014434
1327974
1269028
2070181
756275
2250335
1168479
1327974
2740800
2419946
2601675
2686245
1325731
445696
877240
1572712
1325731
2686245
1493511
1283077
1168478
238854
194699
455364
2249779
1493511
242527
1084719
1327990
1472912
1493513
455364
1327990
2801477
753084
2250416
1168479
382262
1327990
1917232
756275
1084719
2144176
2283265
1392231
2686251
2547425
880159
455364
1585840
2686245
1051675
1414742
2743781
2686245
2743781
455364
12643
1325731
1220601
1168479
1084719
382262
46021
2743781
2743781
1557034
1493511
2250336
2686245
455364
1327990
1327974
268746
1327990
31535
1557033
2664196
2801477
1493511
2593360
1542477
910474
1168479
2079426
1897437
2491321
2070181
2510464
2510464
2014434
2743781
2107708
1557034
1327974
754039
1557034
455364
1542477
642926
1327974
97195
10506
1327990
646413
2107708
1273707
999883
1141136
35241
1084719
1557033
1168479
2510464
2801477
1392231
251749
1493511
1392231
268746
1572712
2772084
2716351
1168478
2716351
1542477
446529
2041344
1586713
444860
455364
380598
1084719
2772066
2144176
444860
1962671
1168479
2743781
2023996
2483623
1084719
2801477
1814287
2079426
754067
2015860
2023996
2590946
984175
2079426
1084719
2743781
1572712
536444
2743826
1084719
455364
445686
1084719
2023996
1392231
1283076
2024264
2686247
1168479
268746
2590946
2743781
2491321
754067
2686245
2144176
1084719
1555202
1084719
2015860
2743826
2772511
2024264
380598
2547425
1278485
2686245
2301529
2053812
2743781
251749
2593360
1084719
1327977
115987
2590946
948870
455364
1084719
380598
2801477
1586713
2801477
880159
1168479
1493511
445700
35241
1883366
2301697
1084719
2801477
1168479
444878
1084719
354260
2491321
445688
2686251
754042
2024264
1084719
2801477
2801477
880159
1026955
1527519
445686
1349409
1392231
1084719
1168479
1137745
10506
1557033
2801477
10732
2510464
268746
1084719
1917232
2024264
2488571
1913591
2590946
1880590
948870
1137745
205879
2801477
380598
280701
1026955
1880590
2743829
1557034
2041344
251749
2023996
1897532
2593360
2741076
1392231
948071
1542477
1590550
2696426
1327977
1873777
2801477
1572712
1392231
1883368
1557034
2250335
2801477
1042122
555387
444878
1897532
1137745
2024264
1327977
10506
2593360
693272
1273749
755272
2801477
1141136
1206110
1137745
2041344
176652
251749
238854
1168479
445696
2686245
2801477
2079426
2491321
455364
2686245
2686245
1327977
444860
1084719
1127515
1814287
1137745
2686245
2749430
2686251
1137745
2716351
756275
1042122
1137745
1327981
2716351
2014434
2015839
1168479
1557033
2593360
1325731
445696
1079999
1880590
2686247
1168479
1127515
1147094
2023996
2743781
445696
1557034
1137745
455364
1283076
1883368
10276
2491321
1557033
2801477
1137745
1168478
1327990
1557033
1141136
445696
1557033
2048977
1137745
1392231
1335230
455364
1084719
2565696
1335230
1283076
1084719
1586715
2801477
1586715
1168479
2716351
1327990
1493511
755272
546805
1567005
889338
2070181
1821566
445686
445696
444859
2696426
10678
2099637
2182319
2014434
1283076
2801477
455364
320837
1883368
2716351
948071
115987
889956
2593360
1557033
1814287
2772092
2099637
2743781
321023
2725629
2801477
1084719
1814287
2182319
1542477
455364
753084
455364
251749
455364
455364
2510464
446529
2704031
2653270
880161
2014434
251749
1880590
1327037
251749
1883366
2052742
1084719
268746
1327990
2590946
1557033
1557034
2743781
889953
1084719
1084719
251749
251749
2801477
251749
2686279
2099637
2510464
1136534
2801477
1392231
1168479
445696
1883368
85655
115987
251749
445696
1814287
2023996
536466
2041344
1969841
2182408
753085
455364
1168479
2686244
1465751
2545435
1176422
2510464
251749
2801477
1084719
2510464
2041211
2801477
1168479
754042
1414742
889956
2686245
2686251
212035
2510464
2801477
2801477
2801477
2801477
2801477
754042
1278485
754059
115987
1557034
753085
2488789
1880590
1325731
2070181
2743781
2801477
2801477
2801477
273133
2801477
754059
321023
444860
948870
321023
2801477
2601680
205879
1557033
2653725
1555202
1278485
2301528
1168479
205879
1814287
1084719
2041344
444860
1391659
555387
2023996
251749
2801477
1273749
205869
458639
1084719
536466
1325731
1821566
212035
2686251
1168479
1814287
2484217
2801477
2801477
2686245
1168479
2510464
212035
2801477
1557033
2801477
2801477
2801477
335797
455364
1555202
2801477
1034100
2801477
2743781
2801477
1168479
948870
97195
238854
880159
2801477
455364
2801477
2686251
1407493
1327974
1567014
2708562
2801477
444860
2801477
1392231
2716351
458639
329864
2801477
2510464
1084719
458639
1450169
2675257
1329402
2801477
2686245
268746
2743781
1815969
1084719
2024264
2801477
1505027
35241
321023
2801477
455364
2696426
2801477
2801477
455364
2801477
2601680
2743781
1168479
458639
1283077
2686251
1283077
1168479
2801477
2015873
321023
2801477
268746
1327993
445686
880161
1141136
2510464
66797
35241
1084719
642926
455364
2801477
2801477
340435
380598
754059
1141136
1392231
2555548
445696
2801477
2801477
2741074
1590550
2070181
1327990
2801477
1349409
2716351
756277
10679
1586715
10679
1168479
2801477
1084719
373414
1113547
268746
2070181
2743781
1590550
2024264
1168479
1147094
2510464
2801477
1176422
756275
2593360
10679
1815521
1472912
115987
1084719
1590550
753085
2070181
2741074
555387
455364
948870
1493511
2686245
2801477
2041344
2491321
455364
115987
2743781
10679
880161
1168479
205879
10679
10679
1472912
455364
2743781
1913591
380598
268746
10679
889338
1327971
10679
205869
1883369
455364
2801477
1283076
1960658
251749
1814287
2053813
455364
2048977
455364
445696
2562192
458639
1340812
948870
2502409
1472912
10679
2024264
2510464
251749
251749
2234093
1493511
1472912
445700
2801477
948071
268746
1472912
2801477
2027905
880159
2070181
205879
1327990
1815511
10679
1327990
2686245
1493511
2801477
2590946
205879
10679
115987
2048977
1493511
1883368
455364
2070181
1917232
2801477
2801477
2801477
251749
1327990
1269028
1474867
35241
251749
2716351
1472912
1204543
2491321
2024264
1472912
1557034
754042
151539
1472912
2023996
2696458
205879
10679
268746
455364
445700
2743781
1357423
1572712
2315608
2686251
880159
10679
10704
1821566
2653725
2801477
2743829
455364
1883368
251749
2014434
455364
948870
2686245
1392231
2801477
1357423
2801477
2650877
444860
948071
948870
455364
1327985
536453
1955558
2801477
2743781
1340709
2716351
444860
1273749
445700
2686251
455364
59241
2801477
444860
1557034
984175
2686247
1873777
2590946
1917232
2801477
2545435
444860
2801477
2029657
2801477
10678
948071
455364
455364
2024264
2686251
754067
1542477
2801477
10256
331627
1349409
2547425
2686245
2024264
445700
1493511
321023
1814287
251749
455364
880159
1585840
321023
2743781
1357714
10704
1220601
1572712
1557033
909297
2704031
1792032
2587814
445686
2510464
2716351
455364
2801477
1572712
445700
1590550
446529
1283076
2749430
72201
1168479
2716351
1542477
1141136
1349409
1168479
1392231
2144176
1084719
2041344
2716351
458639
1084719
1084719
2491321
1792032
1273749
2686245
2801477
1572712
2708562
1474867
2079426
2182408
1472912
2488789
212035
693272
2023996
445686
431894
1814287
1913591
693272
2015873
1814287
880159
114777
693272
331627
446529
948071
1273752
2801477
948870
948870
1590550
1815521
2070181
455364
205879
2144176
2557582
238854
1557035
251749
10506
413066
1084719
1084719
1327990
2023996
1327977
1026955
423476
2048977
455364
1084719
1177632
2686245
1493511
2108127
2675257
455364
455364
948870
268746
445692
115987
1168479
455364
2144176
2686242
1392231
1168479
2743781
2686251
984186
2741073
1557034
2801477
2716351
413066
1340709
2555548
2743781
1557034
1555202
1084719
2510464
1542477
321023
1168478
2686266
2041344
423476
331627
2716351
2268578
445700
2801477
2024264
1590550
1917232
754042
2675257
1542477
2675257
1392231
1814287
1557035
2070181
194699
10506
1472912
2014434
1814287
2801477
1392231
97195
1177632
1084719
2801477
2218612
2686245
1589733
446529
2510464
1586714
2510464
1168479
321023
1168594
2743781
754042
321023
1168478
590739
1917232
1327977
754064
2686245
753084
2801477
2510464
1913591
2268578
1168479
382685
1084719
2801477
455364
2686245
2588515
2801477
