1262512
221915
292029
221915
292029
292029
1028375
292029
221915
221915
292029
292029
221915
292029
221915
221915
221915
221915
292029
221915
221915
221915
221915
292029
221915
1028375
221915
221915
292029
221915
221915
221915
221915
1041527
221915
307898
292029
221915
1262512
221915
221915
292029
221915
1262512
221915
221915
292029
292029
221915
1262512
221915
292029
1239385
292029
221915
1586714
221915
221915
221915
221915
221915
221915
221915
1262512
221915
221915
221915
1340810
221915
221915
221915
221915
221915
221915
307898
1007127
221915
292029
221915
1195076
221915
221915
221915
221915
307898
221915
221915
1007127
292029
221915
292029
221915
221915
292029
221915
221915
1340810
221915
221915
221915
292029
292029
221915
307898
292029
292029
221915
1883369
221915
221915
221915
1028375
221915
292029
307898
1526408
307898
1239385
221915
1041527
292029
292029
221915
221915
1239385
221915
221915
292029
221915
221915
221915
221915
292029
221915
221915
292029
221915
292029
221915
221915
221915
1239385
221915
221915
221915
221915
221915
1239385
221915
221915
221915
221915
221915
221915
221915
221915
221915
307898
307898
292029
221915
1028375
1028375
292029
221915
221915
292029
221915
221915
1262512
221915
221915
2686251
1195079
221915
1239385
221915
221915
1526408
292029
1239385
221915
221915
292029
1572703
292029
221915
221915
292029
221915
292029
307898
221915
1557035
221915
221915
221915
760530
292029
292029
221915
1262512
292029
221915
292029
221915
292029
221915
221915
292029
221915
221915
221915
221915
221915
221915
292029
1526408
1262512
221915
292029
221915
292029
221915
1815522
1007127
307898
292029
221915
221915
1526408
292029
221915
1526408
221915
1815522
760530
1340810
1586714
292029
1041527
221915
1526408
1262512
292029
307898
760530
1526408
221915
221915
292029
221915
221915
1524910
221915
221915
292029
292029
1815522
292029
221915
1239385
221915
1526408
221915
221915
292029
292029
221915
1340810
1340810
2801477
221915
2801477
221915
221915
221915
1524910
221915
221915
307898
221915
1007127
1340810
1195077
251749
221915
1340810
292029
1340810
1340810
221915
221915
445685
307898
1526408
221915
221915
2023996
2801477
1586714
221915
1340810
1815521
2686279
1815522
221915
2801477
2801477
2023996
2801477
2801477
1526408
2023996
2801477
1340810
1278479
221915
753085
1340810
2268578
2801477
2801477
1586714
2801477
2801477
2801477
2801477
1883369
444860
251749
1340810
238854
2801477
2801477
455364
2801477
2801477
444860
1815522
1586714
2801477
2801477
2801477
2686279
238854
444860
2801477
2801477
2801477
1278479
444860
1586714
238854
2801477
2801477
455364
238854
1493511
1883369
2268578
555387
1883369
444860
2686246
1526408
2686246
1283077
2686246
455364
2023996
555387
238854
445685
444860
2686279
2686246
1883367
444860
2023996
1586714
754042
2801477
2740801
2023996
2801477
2023996
2801477
1586714
2686279
1283077
1883367
2801477
445686
2686258
2686246
2686246
2686246
2686279
2686246
2686246
2686246
2686246
2801477
2686279
2491321
2686246
444860
2686246
2686246
444860
2686279
2686279
2686246
2023996
2801477
2686246
1007127
2686246
2686246
2686246
2686246
2801477
2686246
2686246
2686246
444860
2801477
2801477
2801477
251749
2686279
2801477
1586714
1493509
2686246
2801477
2686251
2686246
2801477
444860
444860
1883369
753085
555387
2801477
2686246
2686246
754042
2686279
1474867
444860
2686246
2686246
2686246
2686246
1815521
2686279
2686246
754042
2686246
2686246
2801477
2686246
2801477
754042
2686246
2686279
2686251
2801477
2686246
2686246
2686245
2686246
2686279
2686246
455364
2686246
2686246
2801477
2686246
754042
2686246
2023996
1586714
1815522
2686246
2686246
251749
2686246
2801477
2686246
2686246
1883369
1815521
2686246
2686246
2686246
2686246
444861
2686279
2686246
444860
2686246
2268578
2801477
2801477
1883369
2686246
268746
2686279
2801477
2686246
2686246
444860
754042
1283077
2686246
2686246
1283077
2686246
2023996
2801477
2023996
2301529
2686246
1815521
444860
2686246
2686246
2686246
2686246
2801477
2686246
2686246
2801477
2686246
2686279
2686246
2686246
2686279
754042
2686246
2686246
1815522
2686246
1283077
2686246
2686246
2686246
2686246
2023996
2686246
2686246
2686246
2686246
2686246
2686246
2686246
1493514
445685
2686246
2023996
869724
2686246
2686246
2023996
2023996
869724
2686246
1283077
2686246
2686246
1883369
2686246
1493514
1586714
1493514
1137745
444860
2686246
2686246
2801477
1278402
2801477
2686246
2801477
2686246
2686246
2686246
444860
444860
2686279
2023996
2686246
2686246
2686246
2023996
445685
754042
2686246
1586715
2686246
2686246
2686246
2686246
2268578
2686246
2686246
2686246
1557034
2686246
2686246
2686246
2686246
2801477
2801477
2686246
2801477
2686246
2686245
2686246
1586714
2023996
2686246
444860
2686245
2686246
2686246
2023996
444860
2686246
2686279
2686246
2686246
2686246
2686246
2686246
754042
2686246
687803
2686246
2023996
2686246
2686246
2686246
2686246
1283077
2772080
2686246
2686246
2023996
2023996
2686279
2686246
2023996
444860
2023996
2801477
2686246
2686246
2686246
2686246
2686246
2686246
2686246
238854
2686246
2686246
2686246
2023996
2686246
2100130
2686246
2023996
687803
2686246
2686246
2023996
1283077
2686246
2686246
2686246
2801477
1883369
2686246
445686
2686246
1883369
2686246
754042
2686246
1589733
1542477
753085
1493511
2686246
444860
1557033
2801477
2686246
2023996
2024303
2686246
2686246
2686246
2686246
2686246
2023996
2686246
1815522
2686246
754042
1883369
1586714
2686246
2686246
2686246
2686245
2686246
1542477
2686246
536444
2686246
2686246
2268578
2686246
444860
444860
444860
2686246
2686246
2686246
2023996
2686246
2686246
1283077
2686246
2686246
2686246
2686279
2686246
2686246
2686246
2801477
2686246
2686246
444860
2686246
444860
2023996
444860
2686246
2686279
444860
444860
2686246
2686246
2686246
2686246
555387
2686279
2801477
2686245
2686246
2686246
2686246
2023996
2801477
2686246
2023996
754042
2686246
2686246
2686251
2686246
2801477
2686246
2023996
753085
2686246
444860
2686246
2686246
2686246
2686246
2686246
2686246
2686246
2686246
2023996
2801477
2686246
2686246
2801477
2268578
2801477
238854
2686246
2686246
2686246
2686246
2686246
2686246
2686246
2686246
444860
1815521
754042
2686246
754042
2686245
2686246
2686246
2686246
2686246
2023996
2686246
1883369
238854
2686246
2801477
754041
1340810
445685
2686246
2686246
2686246
2686246
2686246
2686246
2686246
2686246
2686246
756275
2023996
2023996
2686279
2801477
2686246
444860
2686246
2801477
268746
2686246
2023996
2686246
2686251
1586715
2686246
444860
2686279
2686251
2686246
2686246
2686251
294631
294631
2686246
2027899
444860
238854
2772080
2686246
2686246
2686246
1913591
2686246
754042
1493511
754042
1883369
754042
2023996
2801477
1283077
754042
2686246
1283077
2686245
2686247
2801477
444860
2023996
2686246
2686246
2686245
2686246
2201437
268746
2023996
2686246
2686279
2686246
2686246
2686246
2686246
2686246
2801477
2801477
2801477
444860
2686246
2686246
2686246
2686246
2023996
2686246
2686246
2686246
2686246
1557033
2686246
1283077
2686246
2686246
1283077
2686246
2686246
2801477
2686246
2686246
2686246
444860
1278402
2686246
2686246
238854
2023996
2686246
445688
2268578
2686246
2686246
238854
2023996
2686246
444860
2023996
2023996
2686277
2686246
268746
2686246
2686246
2686279
2686246
1883369
2801477
2686246
1283077
2686246
251749
754042
2182403
2686246
2686246
2801477
2686279
2686279
2686247
1137745
2801477
2686246
2686246
2023996
1283077
2686246
2023996
2023996
2801477
2801477
2686246
2686246
2686246
2686246
754042
2801477
2686246
1557033
756275
446529
2686246
2686246
2686246
1493509
754042
2686246
889953
756275
2686246
2686246
2023996
2686279
2686246
2686246
294631
2686246
1283077
2686279
444860
445688
382359
2801477
2686246
1557034
294631
2686246
948071
2023996
2686246
754042
2023996
1557033
2686246
2686246
2686246
2023996
2686246
2686246
1283077
2686247
1883369
2686246
2686246
2686246
2801477
2023996
2686246
1586715
889953
2268578
754042
1542477
1557035
2686246
1557035
2801477
2686246
444860
444860
2023996
2023996
2686246
2686246
2686273
2686246
2686246
1278479
2686246
444860
2686246
2686246
2686246
445688
754042
2686246
444860
2686246
2268578
2686279
2686279
294631
2686246
2686246
2023996
2686246
756275
908819
754042
2686246
2686246
2686246
2686246
2686246
444860
2686246
754042
2686246
2023996
2686246
2686246
2686246
294631
444860
2686246
2686246
2686246
2686246
2686279
2686246
2686246
2686246
2686246
2686246
2686246
2023996
444860
2686246
444860
2686246
2686246
2686246
2686246
2686246
2686246
2023996
2686246
2686246
2686246
754042
2023996
444860
1883369
2023996
2686246
2686246
1883369
2023996
2686246
320122
294631
444860
2023996
2686246
2686246
1536592
2686246
1542477
294631
2686246
1589733
2023996
294631
2801477
2686246
2686246
2801477
2686246
2686246
2686246
2686246
2801477
2686246
2686246
754042
444860
2801477
2686246
445688
2686246
2686246
2801477
2686246
2686246
2686246
2801477
2686251
294631
2268578
2686246
2686273
268746
2686246
2686246
2686247
2686273
2686273
2023996
2686246
2686246
1883369
2686247
2686246
2686246
2686246
2686246
2023996
2686246
2686246
2268578
2686246
2686246
2686246
2686246
754042
2686246
2023996
2686246
2686246
2686246
444860
268746
1542477
2023996
294631
35345
753085
2023996
2686246
2686246
1883369
1983572
2686246
2686246
1197951
2686246
2686246
2023996
1883369
2686246
2686246
1883366
2686247
444860
889951
444860
2686246
2023996
2686246
1883366
2686246
2686246
2686246
2268578
2686246
2686246
294631
2686246
2686246
444860
2686246
2686246
2686246
2686246
2686246
2686246
2686246
889953
2023996
2686246
2268578
2686246
754042
2801477
2686246
2686246
2023996
268746
2686246
2686246
2686246
445686
294631
2686246
2686246
444860
2801477
2686246
2686246
268746
2801477
2023996
2686246
1283077
2686246
2801477
2686246
1283077
444860
2023996
294631
444860
2686246
2801477
444860
2686246
444860
2686246
754042
2686246
1327982
754042
2686246
294631
2686246
2686246
889953
754041
444860
445683
2023996
1815521
2686246
1283077
2686246
2686246
2686251
2801477
2686246
754042
242527
1493509
2686246
268746
1542477
1586715
2801477
2801477
2686246
2686246
2801477
1283077
444860
754042
2023996
444860
2686246
1586714
948071
2686246
2686246
2801477
444860
1586715
294631
2686251
2686246
2686246
754042
444860
444860
2686246
687803
889953
2686279
268746
2100130
2686246
2801477
2686246
2686246
1883369
2686246
2686246
2686246
1137745
444860
889953
2801477
444860
2686246
754042
2686246
2268578
444860
1340810
444860
2686246
2686246
2686246
1542477
2686279
2686246
1557033
2686247
2686246
2686246
444860
294631
2686246
2023996
2686246
2686246
2686246
1542477
2686246
294631
2686246
2686247
1283077
1589733
1589733
2686246
2686246
1536592
2023996
2686246
2686246
2686246
1883369
2686246
2801477
2801477
2686247
2301529
2686246
754059
2686246
2801477
1332145
444860
2686246
2801477
445688
2686246
1325731
2686246
2801477
2023996
2023996
294631
1327983
2686246
2023996
2686246
2023996
2801477
1883369
2686246
444860
2023996
2686246
2686246
444860
2686246
2023996
2801477
444860
2686279
2686246
2023996
2023996
2023996
2686246
2686246
2801477
2686246
2023996
2686246
2686246
2686246
2686246
2686246
2686246
754042
1283077
1557033
2268578
2686246
2686246
2801477
1542477
294631
2686273
2686246
2686246
2023996
2686246
889953
1883369
2686251
2686246
2023996
2686246
2686246
238854
1327983
2686246
2023996
1883369
2023996
2686246
590739
2686246
2023996
2686246
1283077
1883369
2023996
2686246
2686246
268746
444860
2023996
2686246
2686246
1586715
2686246
1542477
294631
2686246
2801477
2686246
2686246
444860
2686246
2686246
2686273
754042
444860
889953
2801477
889953
2801477
2023996
2686251
2686246
2268578
2686246
2686246
2686246
2686246
2686246
2686246
445685
2686246
753085
2686246
573173
1033977
2268578
687803
2686246
2801477
2686246
35241
2686246
268746
238854
268746
909297
382359
2686246
754042
2686246
268746
2686246
2686246
444860
546805
2686246
2686246
2686246
444860
754042
2686246
294631
268746
444860
2686246
1586714
444860
2801477
1325953
754042
2686246
1332145
2686246
2268578
294631
2023996
2801477
444860
1557034
754042
444860
1493511
2686246
294631
2801477
2686247
2686246
2686246
2484217
294631
238854
1883369
2686246
2023996
2268578
1586714
2686246
2686279
948071
2686246
2686247
2686246
455364
444860
444860
2686246
2686273
2686279
2686246
2686246
2686246
2686246
444860
2023996
2686246
2023996
2686246
2686246
756275
1283077
754042
889953
2686246
2686246
2686246
2801477
294631
2023996
2686251
2686246
2023996
35241
238854
294631
294631
1542477
445688
1814287
1113547
444860
444860
1273711
2686246
2686273
2686251
2686246
2686247
2686251
1327983
2686246
2686246
2686246
1332145
2686246
1983572
2740801
2686246
2686246
238854
444860
2686246
445686
2686246
2686246
1586714
753085
2686246
754059
2801477
1542477
1278479
2686246
251749
2740802
2686273
2686246
2686273
2686246
2686246
1536592
2686246
2686246
1283077
889953
444860
1814287
294631
908819
754042
2686246
908819
908819
2686246
444860
908819
2686246
294631
294631
294631
2801477
908819
889953
948071
2801477
2686246
1586715
2686246
2686246
1327983
444860
35241
2686246
444860
754042
2686246
2686246
2023996
444860
2686246
2801477
2100130
444860
948071
444860
2023996
2686246
2801477
2740801
2023996
754059
2023996
1493511
889953
294631
889953
2686246
1283077
1883369
1283077
2686251
382273
2268578
2686246
2686246
2686246
1283077
2686247
444860
455364
948071
889953
294631
1524910
444860
444860
294631
2686246
444860
2268578
444860
444860
2686247
2801477
2686246
444860
444860
444860
2686246
2686246
908819
444860
2686251
268746
2268578
1283077
908819
754042
754042
754042
754042
444860
1493511
2686246
2686279
2686246
238854
2686246
2686246
2686247
2686246
2686246
2268578
238854
2686246
2801477
2268578
2686246
2686246
2686273
2801477
444860
2686246
294631
1586714
2743781
2801477
1493511
1327982
294631
2301529
2743781
2743781
754042
444860
889953
2686273
2686246
889953
2686246
753085
294631
444860
2686246
2686246
756275
948071
268746
889953
2686251
444860
444860
2023996
2686246
1814287
444860
2023996
1536592
1883369
2023996
2686273
2801477
889953
754042
2772080
889953
438482
438482
2686246
2686246
438482
2023996
2686246
1814287
1340810
536474
889953
2801477
2686246
2772080
2686246
1332145
1586714
2772080
2686251
438482
2686246
2686246
444860
444860
2268578
268746
2652415
2686251
2023996
2686251
2686246
754039
2023996
889953
2686246
555387
2023996
889951
889953
2023996
1278479
2268578
1536592
754042
754059
445693
948071
444860
1542477
2484217
2686251
1283077
251749
2023996
294631
2686273
1283077
1327982
908819
2686246
2686246
889951
2686246
1283077
2023996
2686246
2023996
754042
294631
2686247
2686246
1493511
1814287
445688
880161
444860
2801477
2023996
2686247
2686246
754042
1589733
251749
2023996
948071
909297
2686246
889953
1883366
869724
2801477
948071
2686246
2686246
2268578
251749
455364
2686246
2686246
444860
444860
2686246
2686245
444860
2686246
2686246
889951
948071
889951
889951
2743781
1332145
889953
444860
754042
445688
2743781
444860
2743781
1542477
2686246
889953
889951
2686246
444860
2801477
889951
2023996
444860
2023996
294631
1814287
268746
444860
2686246
444860
444860
2686246
444860
2268578
2686251
2686246
889953
2686246
2268578
2100130
2023996
2023996
2686246
1542477
238854
2686246
2023996
294631
1493512
2686246
948071
2268578
2801477
948071
2801477
444860
754042
2801477
908819
2686246
35241
908819
2023996
2023996
444860
294631
889953
2801477
2801477
444860
889951
444860
2686246
251749
2023996
444860
2686273
444860
2686246
2686246
754042
1883369
2686246
889953
268746
2686251
444860
294631
889953
1542477
2686246
2686246
1557033
2801477
268746
1340810
2268578
444860
2686246
2268578
908819
908819
908819
908819
2023996
908819
889953
2686246
2686251
754042
908819
908819
2686246
294631
444860
908819
1332145
908819
908819
908819
444860
908819
2686246
1542477
320122
908819
908819
444860
908819
2686246
754042
908819
2686246
1332145
238854
294631
2801477
687803
2686251
2801477
2686246
1883369
2686246
238854
1883369
2686273
1332145
251749
2686246
2686273
2686246
1278479
268746
2686246
2686251
889953
2801477
1542477
2023996
2023996
1815521
444860
445685
2801477
2686273
2686246
2801477
2686246
2686246
2686246
1814287
2023996
2686246
2686273
2686246
1557034
908819
2268578
2023996
754041
238854
908819
948071
2740801
455364
2801477
444860
908819
1283077
1327983
444860
1033977
444860
908819
908819
754041
1327982
754042
2686246
908819
948071
2686251
1283077
908819
2686251
2023996
2686273
908819
2686246
444860
908819
869724
2686246
754041
754041
908819
754041
908819
2801477
1332145
908819
1033977
2686246
2023996
908819
2801477
2801477
294631
1883369
455364
889953
2740801
1197951
2268578
908819
2686251
2686251
908819
948071
908819
1542477
908819
205877
754059
2686247
2686246
238854
2801477
2268578
1327983
2801477
2686246
908819
1332145
1557034
2686246
2686246
1493511
2686246
2686246
2686273
2686246
2686273
2686246
444860
2686246
2686246
2686246
444860
2100130
2686246
444860
2686246
1283077
2686246
2686246
1283077
2268578
444860
444860
2686246
294631
2023996
1883368
2686246
889953
908819
2686247
889953
2686251
908819
445688
1283077
889953
2023996
2801477
2686251
382359
1814287
2686251
1557033
2686246
445686
754042
2686246
294631
2801477
444860
908819
756275
2023996
2686251
2023996
2686246
294631
268746
2686246
2686251
2686246
2801477
444860
754049
2686251
2545435
889953
948071
754042
242527
2740801
242527
889951
1283077
2725616
444860
889953
2801477
444860
2686246
2686246
889953
2686246
1883365
1283076
444860
754059
1586714
2562192
2801477
2686279
2686251
444860
948071
2686246
1557033
2686246
948071
238854
754042
169683
2686246
2686247
2801477
2801477
1079998
1557033
1283077
294631
754042
2686251
2023996
889951
1589733
444860
169683
1589733
444860
754042
2686246
2686246
444860
2686273
908819
444860
2686246
2686246
1283077
908819
268746
2686246
565140
2686246
1283077
2686246
2686246
2686246
908819
2686246
2686246
268746
908819
2686247
444860
2801477
908819
908819
1283077
908819
2686246
455364
1283077
948071
2023996
889953
455364
753085
2268578
2686246
2686273
444860
1883369
444860
2686246
2686246
2023996
444860
2686246
2023996
754042
2686251
294631
2686246
444860
2743826
1056831
2686273
444860
1586714
2686246
2686246
2023996
1327982
2686246
444860
2686246
948071
2686246
1586714
2686246
1814287
753084
908819
908819
238854
908819
1283077
889956
2023996
1586714
754042
2686251
2801477
908819
268746
2023996
2801477
2686246
2743781
444860
1283077
2027899
908819
908819
948071
2801477
2686247
908819
1283077
2023996
2801477
2023996
2801477
2268578
2801477
948071
753085
889951
2023996
753085
2686246
2686251
2686246
2686246
1079999
268746
1283077
444860
889953
2801477
1557033
444860
1283077
294631
2686246
889953
2801477
948071
2023996
948071
1283077
1197951
294631
908819
908819
908819
908819
908819
445686
908819
2686246
908819
268746
908819
2686246
294631
908819
444860
908819
908819
908819
908819
908819
444860
889953
2801477
455364
908819
908819
908819
294631
908819
908819
908819
2686246
1542477
908819
908819
754042
1283077
908819
889953
753084
2686246
444860
35241
2686273
2562192
294631
754059
908819
2686251
444860
908819
1033977
889953
294631
294631
2686246
754059
753084
753084
908819
908819
294631
908819
238854
1814287
2686246
2023996
754059
754059
908819
2743781
908819
294631
908819
2510464
908819
908819
908819
908819
908819
908819
908819
753084
908819
1557035
908819
908819
908819
948071
754042
908819
908819
889953
908819
908819
754042
908819
908819
908819
2023996
2686246
294631
294631
908819
444860
2801477
908819
238854
908819
2510464
1033977
889953
2686273
908819
908819
294631
908819
908819
444860
1586714
2023996
2686246
1557034
294631
908819
908819
2801477
908819
754042
908819
908819
2801477
908819
908819
444860
294631
1283077
908819
908819
908819
2686246
294631
1283076
2023996
2023996
2023996
754059
2686246
889953
1033977
2801477
1542477
948071
2686246
2801477
2686246
2686251
444860
2686246
1033977
1283077
908819
444860
908819
444860
2686246
2686246
756275
2686246
2686246
444860
908819
2686251
444861
1283077
444860
2686246
2023996
2801477
908819
2562192
908819
2686251
455364
2801477
2686246
444860
536453
909297
2686246
1283077
455364
2686251
444860
455364
2686246
2740804
1542477
444860
455364
1127516
294631
2801477
2686246
2801477
1557033
2268578
10689
444860
2686251
444860
2686246
2801477
753084
2686246
908819
294631
908819
2686245
908819
2686246
908819
1557033
889953
908819
294631
2023996
2801477
889953
908819
754037
294631
2686246
908819
2686246
268746
444860
1283077
908819
2801477
753085
444860
908819
908819
444860
2686246
268746
1033977
908819
455364
445688
1586713
2686246
2686279
444860
2686246
268746
444860
753085
2801477
2686246
444860
1283077
1327982
2686246
1883366
2801477
754042
444860
2686246
754042
1557033
2079426
444860
1033977
2686246
948071
2686246
754059
2686246
294631
1557034
1883369
1542477
294631
444860
908819
889953
2686246
445683
908819
2686246
908819
908819
444859
908819
2686246
444860
294631
908819
753085
2686246
1168478
2686246
2686246
908819
444859
1283077
2023996
908819
2801477
1357423
908819
908819
2686246
1033977
1542477
2686246
2686246
1168478
908819
2268578
908819
444860
1278479
294631
2686246
753085
1883369
2801477
169683
948071
754042
2686246
444860
908819
1340810
294631
294631
444860
294631
444860
2801477
2801477
948071
908819
2686251
1283077
294631
1586713
908819
1197951
2801477
754064
908819
908819
908819
2686246
2801477
444860
908819
2686251
2023996
2686246
756275
294631
294631
1586715
908819
2686246
294631
908819
908819
908819
908819
754042
2686251
908819
889953
1542477
1557033
1493514
35241
2686246
908819
169683
908819
2801477
908819
2686246
908819
1486472
2268578
908819
2686246
2023996
908819
2686246
444860
1283077
444860
2686251
908819
1283076
444860
2686263
908819
1557033
908819
2023996
35241
908819
2686246
2268578
1283077
294631
1883369
2686246
444860
444860
294631
2686246
2686246
294631
251749
444860
1883369
2801477
444860
251749
546805
1557033
889953
908819
1197951
908819
2740802
1197951
294631
908819
536466
294631
2686246
496874
2268578
1197951
2801477
2686251
2686246
242527
1197951
444860
1557033
35241
908819
2686246
1197951
444860
1557033
1197951
1197951
1557033
1557033
1542477
1542477
2023996
2027899
889953
1883369
908819
444860
908819
908819
753085
754042
35241
908819
1542477
908819
2023996
908819
908819
754042
294631
908819
908819
753085
908819
2686246
2686246
1542477
2686246
908819
294631
908819
756276
294631
2686251
889953
908819
2023996
2686246
936152
251749
2686246
908819
2801477
908819
908819
444860
2686251
2686246
2801477
908819
908819
908819
908819
169683
908819
889951
2023996
2801477
908819
1542477
1168478
908819
2801477
2686246
1168478
1150991
2801477
908819
2686246
2023996
908819
908819
1332145
2741076
908819
2801477
2686246
754042
1340810
1127518
2686246
908819
1168478
908819
2801477
2686273
908819
2023996
242527
444860
1557033
444860
1033977
455364
908819
294631
294631
908819
455364
908819
908819
1283077
294631
2801477
2686246
67082
294631
294631
2301529
294631
908819
2268578
294631
455364
908819
294631
2686246
423476
2686273
908819
2686246
908819
2686246
294631
1327971
294631
908819
294631
2801477
1327971
294631
908819
1542477
294631
754042
753085
908819
294631
754042
294631
294631
2686246
294631
908819
754042
2686246
889953
908819
908819
908819
1327971
2801477
908819
908819
908819
908819
2801477
2686246
908819
1557033
445688
948071
2686246
754067
948071
908819
2686246
2686246
2686246
444860
444860
2268578
2686246
908819
1340810
754042
756275
2686246
2686251
2686246
455364
2023996
908819
2686251
2686246
1340810
908819
869662
1168479
908819
1586715
1283077
2686246
2562192
908819
908819
908819
444860
1542477
2023996
2801477
1542477
2686246
294631
1033977
2023996
1920310
2023996
908819
2801477
908819
2801477
908819
294631
2686246
1557033
2686246
889953
354260
2686246
2301538
2801477
2027899
908819
444860
908819
444860
455364
294631
294631
908819
2686251
461711
1542477
2801477
294631
908819
2686246
908819
2801477
756275
908819
2686246
1332145
908819
754041
1883369
908819
2686251
908819
908819
908819
2100130
1283077
1340810
2801477
908819
908819
294631
908819
2686246
294631
2686251
1542477
1557033
382359
753085
948071
908819
908819
444860
2686246
908819
908819
908819
908819
908819
908819
2686246
908819
908819
2686246
908819
908819
908819
444860
294631
754042
908819
908819
908819
908819
908819
2545435
2545435
2545435
2801477
2545435
2545435
909297
948071
908819
2801477
2545435
908819
2545435
2545435
2545435
908819
1283077
2801477
2545435
1493509
2686251
35241
2545435
2545435
1340810
2545435
1327982
1327982
268746
2545435
2545435
2686246
2545435
2545435
2545435
2545435
1327982
908819
948071
35241
2801477
2686246
908819
2545435
948071
908819
1283077
2545435
1542477
2545435
1327982
2545435
2545435
889951
908819
2545435
2545435
754042
2545435
1327982
268746
2545435
2686251
2686246
2545435
889953
2686246
889953
2686246
2545435
1283077
2545435
2686251
908819
908819
294631
2801477
908819
889953
455364
908819
445686
2686246
1168478
889953
1168478
1542477
2801477
908819
2686246
2686246
908819
2686246
908819
908819
2023996
1033977
908819
2686246
908819
1168478
1542477
2686246
268746
908819
2686246
908819
2801477
238854
908819
908819
2686246
444860
908819
2686246
908819
908819
908819
1283077
908819
2801477
908819
2686246
908819
908819
2686246
908819
908819
908819
2686246
2801477
908819
908819
908819
908819
2686246
908819
2023996
908819
908819
908819
908819
268746
2686246
1542477
908819
908819
908819
2023996
908819
1493511
2686246
2686246
2686246
908819
908819
1283077
753085
2686246
889953
2023996
889954
2268578
2686246
2268578
2686246
1283077
1283077
2686246
455364
2023996
445686
1542477
445686
294631
294631
754053
908819
908819
908819
1327971
238854
908819
2723758
754042
1283077
754059
908819
2686251
444860
2545435
908819
279383
754042
755272
908819
2686246
1542477
908819
2801477
1536592
444860
1983572
445688
294631
2545435
1542477
444860
2686246
908819
496874
880161
294631
2744011
2686246
294631
754042
754059
2686251
1542477
754041
540068
2686246
908819
444860
616674
908819
2801477
1883368
754059
1327037
2686246
948071
1586715
496874
908819
2545435
2023996
754059
908819
2686246
880161
1542477
753084
2545435
1557033
869724
1327971
1332145
908819
445686
2740801
1283077
1327971
455364
754059
1033977
444860
889951
754042
268746
909297
754042
2801477
294631
268746
948071
1557033
2686246
908819
2686246
2772074
754042
908819
1556290
1033977
2801477
1283077
444860
889953
2801477
2686246
1557034
2023996
444860
2268578
444860
908819
889953
908819
908819
444860
2686246
908819
908819
2801477
908819
908819
889953
2686246
908819
908819
908819
444860
908819
2686251
2686246
444860
2686246
2686246
1283077
1283077
2686246
2023996
948071
908819
238854
2686246
2100130
908819
1340810
889953
2686246
908819
1197951
908819
294631
455364
908819
2023996
1197951
461711
908819
908819
1197951
294631
908819
908819
444860
908819
294631
1197951
294631
2686246
908819
908819
908819
908819
1033977
1197951
889953
908819
2686246
908819
753085
2686279
948071
2772511
2686247
2686246
908819
1883369
908819
2801477
1844477
908819
908819
2686251
908819
908819
2686246
948071
294631
2801477
908819
908819
908819
889953
948071
455364
2686246
908819
444860
2023996
444860
2023996
1883369
754059
889953
2686246
2686246
2686246
948071
2686246
908819
754059
754067
2801477
2686246
880161
2686246
444860
1586714
2801477
268746
444878
2686246
908819
2686246
908819
908819
294631
754042
753085
294631
444860
908819
444860
754042
2801477
908819
1586714
444860
445686
2315608
1586714
294631
555387
754042
2686246
1542477
2686246
1586714
2686246
1883369
908819
2686246
2686251
754042
294631
2545435
1273711
294631
2686246
294631
2686246
908819
908819
294631
908819
294631
445692
294631
2772511
294631
948071
2686246
2686246
908819
909297
908819
2686246
2686246
2686246
908819
2686246
908819
238854
444860
444860
2686246
908819
908819
948071
294631
908819
455364
2723758
1542477
908819
2686246
756275
1557033
2686246
2686246
1589733
2740801
2801477
2686246
251749
444860
1283076
294631
2743781
2801477
754042
2686246
908819
2686246
1557033
2686246
908819
754042
908819
1327971
444860
2686246
889953
756275
908819
908819
754042
1391659
1052673
2686246
2801477
2686246
908819
2301529
1815521
2801477
2301529
1493511
755272
948071
908819
754042
1327971
35241
455364
1327971
2545435
444860
1327971
444860
2801477
1327971
2023996
2686246
908819
948071
2801477
455364
948071
1283077
444860
908819
1883369
2743801
536474
908819
2686246
1283077
889953
908819
2686246
908819
1493511
444860
2686251
754042
754042
444860
908819
754042
908819
889953
948071
251749
536444
2801477
1542477
2678601
444860
2686246
908819
869724
908819
948071
948071
2686246
35241
455364
948071
2801477
908819
908819
1493511
294631
169683
169683
908819
908819
908819
1283077
908819
169683
908819
2801477
908819
908819
2686246
908819
2686246
444860
908819
2268578
2268578
754042
35241
908819
2801477
908819
908819
908819
169683
1586714
908819
268746
2686246
2686251
169683
908819
205877
908819
908819
908819
908819
2740801
889953
908819
908819
1536592
1493511
908819
2686246
1542477
268746
1283077
1493511
169683
2686246
444860
455364
444860
445686
268746
445686
908819
908819
908819
2801477
1557034
2686246
294631
908819
268746
908819
2023996
2268578
2801477
1283077
948071
444860
2686246
908819
908819
908819
889953
2023996
908819
908819
908819
908819
908819
1589733
908819
2686246
444860
908819
908819
754042
445688
1589733
2023996
444860
382359
35241
455364
908819
1327971
444860
908819
908819
908819
753084
908819
909297
908819
948071
908819
908819
2686246
1589733
908819
444860
444860
908819
908819
444860
889953
2268578
1589733
1589733
1127518
2268578
2686246
445686
2686246
908819
294631
753084
908819
908819
2686246
2740802
2740802
1883369
1883369
936152
2686246
2686246
1168478
1586713
444860
1033977
908819
889953
238854
455364
2801477
2268578
908819
753085
889953
2740802
889953
1814287
754042
2686246
2268578
2686246
2686246
908819
908819
889951
948071
908819
754042
2545435
908819
908819
294631
908819
444860
2686246
889953
889951
444860
687803
908819
753084
908819
1168478
2686246
889951
908819
908819
889951
889951
1283077
908819
444860
2686246
908819
2686251
2743801
908819
908819
2686246
908819
908819
268746
908819
1168479
908819
910474
2686246
1283077
908819
2268578
169683
2686246
908819
889953
908819
1327939
2023996
1327971
2686246
444860
910474
2023996
169683
444860
908819
948071
908819
889953
444860
294631
536466
2545435
1283076
444860
444860
238854
2801477
1283077
2023996
908819
2686246
754041
889953
754042
169683
1168478
2801477
2686246
908819
1168479
1327971
169683
2686266
2801477
251749
908819
294631
2686246
2268578
2686246
1283076
948071
444860
444860
908819
908819
754042
444860
1542477
2686246
2023996
754037
444860
2023996
444860
908819
2023996
2023996
908819
2801477
1340810
1814287
2801477
260149
754042
908819
2801477
908819
908819
908819
2686251
908819
908819
908819
2801477
2741076
753084
1486472
2545435
2686246
444860
2686246
908819
908819
2686246
2079426
2686246
908819
444860
908819
238854
10754
908819
908819
268746
1168479
753084
908819
908819
2741076
2686246
2801477
2023996
908819
2686251
908819
1557033
908819
908819
908819
1033977
908819
2801477
908819
2686246
1913591
2686246
2545435
908819
889951
889951
294631
889951
908819
2023996
754059
889951
251749
294631
455364
444860
2023996
445686
908819
2686246
908819
2100130
869724
889953
1283076
889951
2801477
2041344
889951
2545435
889951
889951
889951
948071
268746
1883369
908819
908819
908819
555387
2801477
908819
908819
251749
1033977
754042
754042
444860
908819
908819
908819
2686246
908819
1168478
444878
238854
205879
238854
2686246
2023996
2686246
2686246
908819
2023996
2686273
908819
2686246
268746
2801477
294631
2801477
2023996
908819
2686279
294631
2801477
2545435
2268578
948071
908819
2740802
908819
251749
908819
444860
294631
908819
35241
2801477
908819
908819
2801477
294631
2801477
2053813
2686246
1283077
754042
889951
2801477
908819
294631
2686246
294631
294631
444860
908819
1815521
455364
908819
382262
2801477
2801477
294631
1493511
2686246
908819
1278479
444860
908819
444860
908819
1357423
908819
908819
754042
908819
908819
2545435
444860
754042
2686246
1493510
444860
908819
2686246
908819
908819
908819
2023996
444860
936152
2801477
1542477
444860
455364
936152
2801477
908819
908819
908819
444860
2740801
1557033
2023996
948071
444860
948071
2686251
444860
444860
2686246
35241
444860
908819
908819
2023996
2023996
444860
908819
444860
2686246
444860
908819
948071
948071
908819
908819
908819
2801477
908819
444860
445683
1542477
948071
2593333
880159
948071
908819
908819
889953
908819
444860
35241
2686246
948071
948071
2686245
2686251
753084
2686246
238854
445683
1340810
754041
2268578
2023996
2740801
756276
754042
1883369
444860
1168478
908819
2686246
444862
1883368
1327971
238854
294631
2801477
754042
908819
908819
2801477
908819
444860
908819
2023996
1327971
1327971
2545435
2301529
2772074
2419942
238854
1327971
2741072
2801477
1493511
2801477
948071
2801477
294631
238854
2723758
889953
889953
908819
889951
35241
908819
1327971
2686246
2686246
948071
2268578
1557033
294631
936152
268746
2686246
908819
908819
908819
908819
908819
908819
908819
908819
908819
908819
908819
908819
908819
444860
908819
754042
444860
444860
908819
908819
908819
908819
869724
754037
1283076
546805
1536592
294631
1542477
251749
2023996
444860
1493508
2740801
294631
2801477
445688
2740801
35241
2801477
444860
2801477
294631
880159
268746
948071
754064
294631
444860
294631
2268578
2686246
2686246
242527
2686246
2686246
908819
754042
294631
1197951
908819
908819
2023996
2023996
948071
2545435
1283078
294631
2686251
2023996
268746
2686246
908819
2686246
753084
889953
444860
2801477
455364
908819
908819
2023996
2801477
908819
908819
238854
445688
908819
908819
908819
35241
2801477
753085
754042
908819
908819
908819
908819
908819
1168478
908819
2023996
2023996
444860
2023996
908819
754041
1283077
948071
753085
908819
908819
908819
908819
908819
908819
2801477
444860
205869
753085
908819
2686251
696472
2686251
1079999
2686246
754042
2686251
2801477
754042
268746
1168478
880159
754059
908819
908819
238854
754042
753084
908819
889953
1283077
1883369
908819
455364
2801477
908819
2686251
908819
444860
2686251
948071
444860
294631
889953
908819
889956
1586714
1168478
251749
889956
238854
908819
908819
2686251
2686251
2686251
1557033
908819
2023996
1557033
2023996
1327037
1557033
908819
908819
1557033
908819
908819
2686246
2686246
1557033
908819
444860
908819
908819
754042
1557033
2686246
908819
754041
754042
294631
756275
445686
1883370
2686246
908819
444860
754037
2686245
444860
2801477
445688
948071
753085
2023996
948071
2801477
908819
1168478
948071
948071
756275
2801477
444860
444860
948071
1283077
2023996
908819
1542477
444860
948071
908819
2801477
948071
948071
948071
753085
948071
908819
2801477
1278479
2023996
948071
948071
2268578
948071
908819
948071
754042
889953
908819
948071
948071
948071
948071
1586715
948071
112023
948071
1168478
2686246
908819
2686246
294631
908819
908819
908819
908819
2801477
1168478
948071
908819
908819
1536592
1168479
908819
444860
908819
2545435
1821560
294631
908819
2686251
908819
754042
2545435
1332145
2686246
2545435
908819
908819
2686246
444860
2686251
908819
889953
169683
754042
2023996
754059
948071
1332145
908819
2801477
2801477
294631
444860
2801477
1821560
908819
753085
908819
2801477
2023996
908819
2801477
251749
2686246
908819
2686246
2023996
908819
908819
1168478
908819
889953
754042
444860
444860
908819
1168478
908819
889954
2686246
2686246
1283077
2268578
1150991
1493511
908819
754042
908819
2023996
2686246
169683
444860
889953
1283077
112023
268746
2686246
455364
1327971
1168281
1283077
2801477
2686246
2723758
1283077
908819
2801477
754042
908819
1327971
2268578
909297
445693
2686246
1815521
444860
908819
1327971
1500757
2048977
908819
908819
908819
1168478
2686273
251749
2023996
889953
444860
754042
2686246
1586713
35241
2801477
444860
1168478
2741076
756277
948071
908819
444860
754042
908819
1814287
908819
1542477
2268578
910474
2686246
455364
908819
908819
2023996
1273711
1327971
2801477
1327971
2023996
294631
908819
169683
169683
1526550
2023996
455364
169683
1327971
910474
1327981
169683
444860
889951
2023996
1283077
908819
2801477
1327971
2801477
2023996
1327971
756275
889953
251749
1327971
1357423
2801477
169683
1391433
2743801
869662
347327
2801477
1327971
2686251
2801477
2686251
1340810
238854
1327971
2801477
753085
1283077
445688
910474
908819
2686251
2801477
444860
2801477
444860
908819
889951
2268578
948071
1969841
908819
948071
2686246
1327982
948071
889951
238854
753084
889951
112023
1168478
444860
2686246
251749
908819
948071
889951
889951
908819
444860
948071
948071
1557033
1283077
948071
2801477
948071
948071
2686247
908819
753085
2801477
1033977
2686246
294631
908819
908819
10689
2023996
1168478
1168478
908819
1283076
35241
908819
936152
2023996
444860
1557033
909297
1168478
2686246
948071
1965368
948071
693272
908819
908819
1026955
536444
2686246
444860
908819
908819
2686246
2301529
1168479
908819
908819
112023
1133293
908819
238854
1283077
2686246
294631
444860
238854
444860
908819
2686245
1838137
1327037
455364
268746
2268578
908819
908819
1283077
2801477
1327036
908819
908819
908819
1283077
909297
908819
444860
1493511
238854
268746
2023996
889951
1283077
908819
754042
1542477
908819
251749
908819
444859
1327982
908819
279280
1542477
49964
1168478
2801477
908819
908819
1536592
2686247
444860
908819
908819
948071
908819
908819
908819
2023996
2686251
2801477
908819
908819
908819
908819
2686251
908819
251749
889953
908819
948071
908819
444860
2686251
294631
908819
948071
1493514
908819
908819
2686251
444860
908819
2686251
908819
908819
2686251
948071
2488788
2023996
444860
908819
444860
908819
908819
908819
908819
908819
444860
2801477
2686251
908819
1079999
908819
908819
889953
1168478
908819
908819
908819
2686246
908819
908819
2686251
908819
2686251
908819
908819
908819
908819
444860
908819
2686251
444860
908819
169683
1283077
1168478
908819
756275
268746
169683
1586713
2801477
2743781
2023996
908819
2801477
546805
2801477
753084
169683
753085
382359
1273711
2023996
908819
1283076
908819
444860
2686246
169683
1168478
2743781
169683
2801477
2545435
754059
753084
948071
754042
908819
1026955
908819
238854
2801477
2545435
444860
908819
908819
1557033
2686246
2023996
908819
455364
1542477
1168478
2801477
2686251
1445858
936152
2801477
1168478
1168478
948071
1883369
908819
753084
2686246
2686246
1445858
2545435
2801477
2801477
2545435
2801477
294631
908819
444860
445686
753085
2686247
1327970
754042
1536592
1283077
908819
2686246
444860
238854
908819
251749
2686279
238854
908819
2686251
2801477
2801477
908819
753084
2686251
238854
205869
1168478
536466
908819
908819
908819
2801477
2041344
908819
1283077
2686246
908819
2268578
2801477
1283077
2686251
1536592
869724
2100130
268746
908819
2801477
908819
444860
908819
908819
2686279
2686251
2023996
908819
754042
2801477
444860
445688
455364
754037
294631
908819
1327985
936152
1283077
908819
1168478
2801477
2801477
1168478
2801477
445688
910474
948071
444860
908819
445688
910474
268746
268746
279280
445688
1586713
445688
910474
2686245
444860
2686251
444860
1572745
444860
268746
268746
908819
445700
753084
2801477
2801477
445688
754042
754037
1283077
1586715
2023996
1883366
294631
1127518
1127518
2801477
889953
1542477
444860
1168478
2023996
2686279
2686245
908819
1573458
1278485
908819
1542477
1883369
1168478
948071
908819
1542477
889953
2686266
2686266
445686
908819
1586715
1883368
908819
2801477
908819
908819
1486472
2686266
1391433
889953
908819
753084
2686266
908819
2686246
1557033
948071
908819
2686246
908819
1573458
1493509
2023996
2801477
2686246
2686245
444860
2301529
753084
444860
908819
754042
948071
889953
546805
908819
322855
929832
948071
889953
908819
294631
1815521
1283077
2801477
908819
880161
1542477
444860
2801477
908819
2801477
444860
2801477
2023996
1486472
444860
2686246
444860
1327971
444860
2686245
1493511
754042
2801477
2740802
908819
753084
908819
444860
2801477
444860
1445858
753084
1557033
908819
908819
294631
455364
444860
908819
2801477
444860
268746
2686246
444860
444860
347327
461711
908819
444860
2801477
1536592
1168478
756275
1586715
908819
444860
908819
2686247
444860
444860
444860
908819
756277
294631
948071
2023996
908819
889953
1283077
908819
2023996
908819
753084
908819
1573458
908819
908819
1883368
2023996
908819
908819
889951
2686246
1965354
908819
908819
444860
908819
908819
908819
908819
908819
2023996
2686246
908819
2686246
908819
908819
35241
908819
2686245
889953
2686245
1332145
1168478
908819
194699
908819
908819
35241
908819
908819
2801477
908819
2023996
546805
908819
1283076
2268578
1283077
1327981
2801477
1340810
908819
908819
908819
2686251
1127518
1327981
2023996
2686246
908819
1283077
2686246
908819
2801477
444878
251749
908819
2023996
948071
754042
2740801
445686
756275
2686251
268746
1557033
889953
2023996
2686266
2571249
268746
536466
1168478
2801477
2023996
2686246
754042
1033977
908819
2801477
2023996
948071
2801477
2801477
948071
754042
2686246
908819
948071
2801477
756276
754042
2686266
948071
2301529
948071
908819
444860
948071
908819
455364
1536592
908819
948071
2801477
444860
2488788
948071
948071
2024264
908819
948071
1283076
948071
1883368
1542477
2686246
948071
948071
2686246
1168478
908819
2686251
2686246
2686247
948071
948071
1168478
754042
765765
1557035
444860
1586715
948071
2723758
455364
1168478
754042
1033977
948071
1168478
2686246
444860
444860
2686246
948071
536453
880161
2801477
1542477
2686246
444860
455364
455364
455364
455364
948071
444860
444860
948071
948071
2686251
754042
1536592
444860
2686246
238854
908819
908819
1536592
1283076
444860
889953
1283077
1283077
908819
1168478
889953
753084
2801477
1283077
908819
908819
1283077
616674
444860
908819
2801477
1168478
908819
2801477
2023996
444860
753085
1536592
908819
908819
908819
2801477
889953
2801477
1168478
2686266
2562192
2801477
2772074
2686246
1332145
753085
1557033
889953
169683
1557033
2023996
2801477
2686266
1880590
948071
754042
1557033
889953
2686266
908819
2686245
1283077
948071
948071
753085
294631
1340810
889951
2024264
2686266
1168478
2686246
444860
2023996
1557033
753085
1557033
948071
908819
2740801
205869
754059
444860
948071
294631
1283077
889951
2801477
1168478
2801477
2740801
2686242
2686251
294631
444860
1168478
909297
1283077
889956
1327982
445688
2023996
1557033
2801477
2740801
753084
2686242
2740801
1283077
889951
1168478
2801477
754042
1557033
444860
753085
2686251
354260
2023996
889953
948071
268746
756275
2801477
268746
2686246
1536592
2801477
948071
1168478
1168281
444860
2023996
2801477
2562175
1283077
1168478
294631
2801477
2686266
2686246
268746
1883369
2686266
294631
1283077
444860
1168281
1168478
1026955
2023996
2079289
1883369
910474
2023996
889953
2801477
1327982
2686251
1883369
2801477
2565501
889953
1486472
908819
1932881
756275
2686246
2801477
1557033
1332145
2801477
1557033
1493511
754059
2740801
1557033
1327982
908819
1327982
1283077
948071
1133293
444860
444860
2686246
455364
908819
908819
1168478
908819
908819
908819
908819
693272
2023996
2686251
754042
754037
908819
908819
444860
908819
908819
908819
444860
1536592
1493511
1168478
908819
908819
1033977
2686251
889953
1536592
908819
2801477
889953
2491321
1168478
1883369
1033977
889953
2686246
268746
1283077
2023996
756275
2029657
444860
2801477
2023996
445688
889953
1283077
294631
268746
2686246
1542477
1278402
444860
445688
536466
268746
2801477
2023996
444860
1168478
889953
444860
1278402
444860
1536592
194699
445686
2801477
2801477
889951
908819
455364
2801477
2801477
2023996
908819
880161
754042
948071
908819
2686246
2801477
908819
908819
268746
2023996
1033977
1557035
889953
1168478
1357423
2686251
2686266
2686266
948071
2801477
1969841
2801477
908819
2801477
444860
2686246
2686246
2686266
2686266
948071
1168478
2686266
294631
948071
909297
2801477
756277
2686246
2686246
1536592
268746
1283077
1883369
1327981
1557035
948071
1327982
889951
1883365
1536592
444860
2686246
889951
2801477
2801477
754059
889953
753085
1327982
2023996
1327982
546805
889953
1168478
948071
2268578
1557034
455364
444860
1327982
1127518
1168478
889951
2686263
948071
948071
1197951
948071
1197951
1327982
1168478
948071
2023996
1327982
444860
2686251
1557034
889951
1168478
238854
2686246
1168478
1168478
2023996
1168478
889951
1327982
444860
279383
1327982
1168478
908819
1327982
2772074
754042
2686245
455364
205869
2801477
2686245
268746
1283077
1168478
35345
1328030
2686251
1168478
1557034
2686246
909297
2686246
2686245
2023996
1536592
1168478
1327971
1168478
2686245
754042
169683
2301714
880161
2743801
2023996
294631
2801477
908819
444860
2801477
2686245
753084
2686251
2801477
1168478
1586715
238854
2801477
2741076
2686246
948071
1283077
2801477
2801477
445688
908819
2801477
2686246
1883368
445688
2686245
444860
1557033
251749
2801477
1542477
2023996
2023996
2801477
756275
2801477
444860
2686246
1536592
948071
294631
1557034
1538364
910474
880159
754042
908819
1168478
268746
1278479
2023996
194699
2801477
869724
238854
948071
2801477
880159
1033977
2686247
1168478
268746
753084
908819
2801477
2023996
2801477
2686251
2686251
444860
2686266
2686251
2686251
2686245
889953
1278402
1536592
1541883
2686246
756275
2686251
2801477
2686251
2686266
2801477
2801477
2686245
2801477
1168478
455364
2686251
889953
2686251
2686246
753084
2801477
2283261
1168478
1327985
1168478
2686251
2686266
2801477
2686251
444860
2686246
2686245
2686266
2686251
2686246
1536592
948071
2562175
2686251
444860
1273711
1283077
756275
2686251
455364
2686245
753084
2686242
546805
444860
2686266
1283077
268746
444860
2801477
1168479
908819
2686245
889956
2686246
2686246
2686245
2801477
444860
754042
444862
268746
948071
908819
948071
2686246
444860
444862
908819
444862
251749
2686246
948071
2686246
2301529
1168478
948071
444862
753084
268746
2686246
444860
1586714
2052742
268746
455364
2801477
1283076
2686246
1168478
1586714
444862
754037
444860
445688
908819
948071
445688
455364
2801477
2023996
908819
1557033
2023996
1033977
2023996
1283077
2686245
2801477
908819
444862
2801477
936152
444878
444862
445700
2023996
908819
908819
756277
2740801
2686247
908819
2686266
948071
1033977
889953
908819
1168478
948071
2801477
908819
2301529
908819
908819
2023996
948071
2686266
948071
908819
444860
2023996
2723758
908819
2686246
948071
2801477
908819
908819
908819
889953
908819
889953
444860
948071
948071
908819
908819
948071
1168478
908819
2023996
444860
908819
2723758
455364
908819
2023996
908819
1542477
889953
948071
754067
889953
908819
444860
2686246
2023996
2686246
2686251
908819
2686251
2801477
2686251
2686251
908819
2686251
908819
889956
2023996
2686251
1969841
444860
2686251
2301529
2301529
2023996
753085
1273711
1168478
889953
1168478
2686251
238854
2801477
2686251
2801477
1969841
2686251
2801477
536444
2686246
2686251
908819
2686251
2686251
1168478
2686251
2686246
238854
205869
2301529
2686251
455364
2801477
2686245
908819
1557033
455364
2801477
169683
169683
2023996
2686246
2801477
2686246
753084
754042
169683
169683
444860
2268578
753084
2023996
889951
908819
756276
2801477
1168478
908819
1536592
1283076
908819
169683
754039
1168478
2023996
2686245
444860
169683
2740802
1141136
238854
1168478
753084
908819
2686246
444860
1283077
35241
238854
268746
753084
1557034
2686246
908819
753084
753084
2686246
753084
1283077
2686251
889953
1283077
2686245
1542477
2686245
169683
753084
889953
2740802
948071
948071
948071
2801477
1328030
948071
948071
948071
754042
2023996
948071
2023996
444860
948071
948071
2023996
2301528
948071
948071
909297
2686245
948071
948071
2686245
948071
2010329
948071
1557033
753085
948071
2024264
909297
444860
948071
948071
948071
1133293
1557033
2801477
1542477
1572743
948071
268746
2686245
948071
948071
2023996
2686251
908819
948071
2686245
948071
948071
2500816
1536592
2023996
2686245
1340812
1168478
2023996
1308863
444860
2686251
908819
908819
2686266
753084
1536592
1536592
908819
1168478
2686251
238854
2801477
2686246
2686251
2686251
238854
2686246
754042
2801477
268747
1542477
1168478
2686273
889951
2590946
753085
948071
2488788
2023996
444860
2801477
1283077
908819
1168478
754041
1283077
1168479
753084
2686251
2801477
1206110
908819
908819
444860
753084
889953
444860
908819
908819
889953
2801477
908819
1542477
753084
444860
753084
908819
889953
753084
753084
908819
268746
889951
756277
294631
2023996
444860
1557035
753084
753084
753084
1033977
2023996
753084
2686245
948071
908819
908819
2801477
908819
2686246
753084
1406783
1283077
753084
1327985
1168478
2686245
444860
1168478
1168479
753084
2686245
444860
753084
2801477
268746
2686245
2686245
1168478
754042
1406783
2801477
753084
2686266
756275
753084
251749
1357423
754042
1880590
2010329
2100130
908819
445688
1880590
2801477
908819
2801477
445686
444860
948071
444860
2686251
948071
1283077
908819
948071
1168479
753084
445688
444859
2023996
260149
1883368
444860
2686246
2686245
1168478
1033977
1283077
908819
2801477
1340810
889951
2740801
908819
2545435
908819
2801477
2801477
2801477
2801477
2801477
2801477
908819
756275
2686246
908819
2801477
2686251
2801477
1586715
909297
1283077
444860
1283077
1168478
444860
908819
2686251
756275
908819
2545435
2740801
2801477
1168478
268746
908819
1493511
2686246
754042
2801477
2686251
1168478
1217810
908819
2686246
2686251
455364
2801477
2801477
2801477
889951
908819
2801477
908819
1557033
908819
2686246
2686245
2801477
2250336
2740801
238854
2686246
2801477
2686266
2801477
2801477
908819
2686251
2801477
1127515
151539
2301561
1217810
1168478
444860
2686245
35241
2079426
948071
1527524
2801477
2686266
1168478
444860
908819
2686266
546805
754067
1168478
294631
2686266
2686266
2686266
242527
2686266
1519788
2023996
2686246
2023996
2743781
444860
1536592
2686246
2686266
2686266
2686246
242527
1883366
1168478
2686266
1493511
1536592
1168478
2686266
2488788
1168478
2686266
2686266
754042
2023996
1168478
2801477
251749
445683
908819
754042
2686251
455364
455364
2801477
294631
2023996
2686246
1283077
1542477
1168478
1137745
2023996
455364
455364
908819
1586714
754048
908819
455364
1273711
2686251
908819
1557033
2023996
2686251
2686251
2686251
294631
1052673
2686251
2723758
948071
2686251
238854
445686
2686251
756275
1283077
2601643
908819
2686266
1273711
445683
445688
2686251
2301529
754042
1168478
2301714
1168478
1278479
205869
1557035
2023996
1168478
445686
2801477
2686251
756275
753084
1168478
444860
445686
1883366
169683
2801477
1557033
889951
444860
2716351
2686251
1815630
260149
2801477
2801477
444860
2686251
1965368
2686251
2686245
756275
2686245
444860
2686251
754067
756277
444860
2801477
2801477
753084
2686245
889953
268746
1486472
444860
2723758
2023996
1168478
2023996
1542477
2029657
2686266
268746
268746
754042
948071
1273711
2686246
2023996
444860
948071
444860
948071
445686
948071
1283077
1168478
1168479
1273711
2686246
2268578
294631
238854
2686246
889953
445686
1283077
2562175
754042
2023996
1187128
1308863
908819
2023996
2500581
1033977
2801477
909297
238854
2801477
2686251
444860
948071
948071
322855
444860
889953
444860
1557035
2686251
2801477
948071
948071
1969841
1887641
1557035
2686246
908819
948071
242527
1542477
948071
251749
1586715
1168478
908819
908819
1557033
251749
908819
444860
2801477
444860
1168478
908819
536474
444860
2268578
753084
444860
908819
754042
2010329
1557033
268746
908819
2801477
908819
2801477
2801477
2801477
2801477
2801477
455364
889953
754042
2010329
2801477
1557033
909297
2801477
2801477
756277
444860
2801477
1557035
2686246
2801477
2801477
2686242
1283077
754042
908819
445688
2801477
2801477
753084
2801477
2801477
2801477
2801477
2801477
948071
2801477
2801477
2801477
2801477
948071
1327971
2801477
2801477
2301529
753085
908819
908819
2686242
2801477
909297
908819
2801477
2801477
753084
2801477
2801477
2801477
2801477
2801477
1127518
2801477
2801477
2801477
455364
948071
908819
2801477
1127518
2801477
908819
908819
2801477
2686242
2801477
754042
2686242
1557034
2801477
2801477
2801477
908819
2801477
2801477
2686246
908819
2801477
2801477
2801477
455364
2801477
2801477
2801477
756277
2686242
2801477
2801477
936152
2801477
2686242
909297
2686242
2686242
2686242
908819
2801477
2801477
1033977
2801477
2801477
2686246
1168479
2686242
2801477
2801477
2557579
2801477
754042
908819
2801477
2801477
1391428
1391428
2801477
2801477
908819
889953
2801477
2801477
2686245
2801477
2801477
2801477
2801477
2686242
2801477
2801477
908819
2801477
2547425
909297
948071
2801477
2801477
908819
889953
2801477
2801477
2801477
2801477
2801477
2801477
2801477
908819
2801477
2801477
268746
908819
2686242
2686245
2801477
445700
2801477
194699
2801477
2801477
2801477
2801477
2801477
908819
908819
2801477
2686242
2801477
2801477
2801477
908819
2801477
908819
181082
948071
2801477
908819
908819
2801477
2801477
2801477
2801477
444860
444860
2686242
2801477
2801477
2801477
2801477
2801477
2686251
2801477
908819
2801477
2801477
2801477
2801477
948071
2686251
2801477
889953
2801477
2801477
2801477
2801477
1883366
2801477
2801477
889954
444860
908819
1168478
1557033
754042
908819
2801477
294631
268746
1168479
444862
2801477
35241
1273711
2023996
908819
1332145
2686251
889953
908819
908819
889954
2741077
2023996
2686266
909297
908819
2268578
268748
908819
444860
2801477
908819
908819
753084
294631
2070026
658401
1557035
889953
889951
2653651
2801477
2023996
251749
754042
2686251
908819
1327985
2686251
1327971
1204534
2023996
754059
909297
753084
1541819
1187128
1197951
340435
294631
1557033
754059
663557
889951
687803
749413
455364
2686251
908819
2801477
2686266
1527524
444860
455364
908819
2686251
1168478
1542477
1332145
1168478
1815522
2656556
444860
2301528
1283077
889953
2801477
1493511
908819
2801477
2801477
948071
948071
1573458
756275
2023996
2686246
909297
889951
908819
1557034
455364
1283077
2801477
756275
936152
1127515
2801477
1883368
908819
2686245
948071
2686245
754042
2686245
1557033
1283077
1283077
1883369
756276
1542477
2686245
444860
753084
2716351
1127518
1586714
908819
2686251
2723758
1542477
251749
2686245
2686246
756275
1168478
445686
2686245
2686246
754042
908819
2801477
756275
2686246
2801477
1283076
2740801
1557035
444860
2686251
455364
1168479
1586713
444860
444860
1168478
909297
889953
2801477
2801477
1557033
754042
1883366
2686246
2562175
251749
1557035
139871
1168478
756276
2801477
444860
1586715
444860
455364
251749
1168478
294631
2686246
2801477
908819
909297
754041
908819
754042
948071
2052742
445688
2801477
908819
1557033
496874
205877
754041
754042
948071
2801477
444860
908819
2686245
754042
908819
2545435
948071
908819
1127518
2488788
1586713
2419682
2023996
2759393
908819
908819
444860
1536592
2079257
1187128
908819
2023996
444860
238854
908819
1983572
2268578
1168478
880159
1557033
446529
1880590
2686242
1168478
444860
438482
2801477
294631
1168478
889954
1283076
2801477
908819
908819
908819
908819
2686246
908819
251749
1327985
908819
2562175
2048977
1168478
444860
756275
2686251
908819
2686251
445684
2686246
948071
948071
169683
908819
294631
1542477
2268578
2801477
753084
1168478
2023996
754042
908819
753084
1557033
908819
908819
169683
2801477
2686251
1278479
908819
2686251
754042
2268578
948071
1883369
753084
1327981
455364
268746
1168479
756276
1557033
753084
948071
444860
1527524
756275
2591403
753084
948071
753084
2686251
445688
2686245
242527
756275
2801477
294631
754042
268746
1542477
1883368
2686246
2686246
1168478
1557033
1557035
2547425
2686251
753084
2686251
908819
908819
2023996
455364
908819
908819
1283076
908819
1557033
2023996
948071
2686266
2100130
1141136
1557033
455364
2686247
2686246
754042
908819
908819
1283077
754042
2686251
754042
455364
908819
1168478
1283077
908819
1589733
445686
2801477
909297
663241
908819
2801477
753084
1557033
753084
2801477
2772074
948071
2686266
444860
889953
2686251
753084
908819
444860
2740801
1340810
754067
455364
455364
2023996
1542477
908819
908819
753084
2801477
908819
1969841
753084
1168478
908819
268746
1113547
238854
444860
1141136
2801477
1969841
2801477
444860
1137745
1273711
294631
908819
445686
908819
169683
1197951
169683
2686266
2801477
2686266
2801477
455364
889951
948071
2686266
2801477
2686266
2686266
756276
1079998
908819
2686251
2686266
1235689
2686245
1283076
948071
2686266
2686266
294631
753084
1883368
2686251
1283077
455364
1283076
444860
1168479
1168478
2686266
2686266
754042
1445809
948071
2686266
663557
2686266
2801477
2801477
2801477
889953
2759393
1168478
909297
1883369
2686246
1168478
2301529
756275
2686245
2801477
1168478
2686245
2686245
2686245
455364
2565501
908819
756276
2686246
2801477
889953
2686251
2686247
908819
948071
2686266
753084
2301529
908819
753084
908819
753084
658401
238854
1127518
238854
948071
2686245
1168478
444860
2686251
1273711
889951
2301529
1493511
444860
1542477
2686266
2023996
754042
2686251
948071
2686246
2801477
2686266
754042
444860
1913591
28874
908819
2686251
1536592
268746
2023996
1815521
753084
2023996
1589733
444860
754042
2686251
1113547
1557033
1168478
1283077
1815521
2686251
1187128
756276
2686251
908819
2686251
2801477
268746
753084
908819
251749
1283077
753084
754042
889953
2686251
889953
546805
2725629
455364
754042
1814287
1283077
1493511
2801477
889953
294631
1883369
754042
1273711
948071
908819
908819
908819
72201
908819
445686
2023996
2023996
2801477
444860
2268578
2686251
908819
2801477
1357715
2023996
889953
1327971
1555202
1206110
546805
753084
908819
948071
2301529
753084
880159
908819
2686266
889951
756275
2772074
1327971
948071
1283077
908819
1414739
880159
1572743
1034139
1391659
908819
2686242
880159
1505225
1486472
2023996
1493514
169683
169683
2053723
2268578
2053813
753084
2686251
444860
753085
889951
2340716
2801477
948071
753084
948071
169683
169683
2686251
2115967
908819
948071
948071
908819
908819
2801477
753084
1327971
948071
753084
2686242
754042
948071
948071
754042
445688
444860
2686266
1486472
1815521
2801477
753084
169683
908819
169683
2301601
1283077
1880590
1821560
455364
908819
908819
2801477
1327971
1897532
2268578
169683
1168478
2723758
2023996
889951
2801477
948071
169683
2801477
908819
194699
438482
948071
948071
1880590
2686251
169683
169683
2686242
1278479
1327971
889951
1033977
948071
880159
753084
444860
2686266
2686245
169683
1127518
2686266
129953
880159
908819
658401
948071
169683
1079998
238854
1283077
2023996
2686245
2023996
1873698
340435
444860
1079998
238854
444860
2801477
908819
756276
169683
194699
948071
444860
2599880
444860
2686266
908819
889953
753084
294631
1542477
908819
908819
2801477
2100130
1557033
1079999
444860
1557033
455364
1033977
1283077
455364
908819
2741074
1327981
2686251
444860
2686247
294631
1486472
908819
1557033
908819
754042
753084
1283077
909297
268746
2801477
1168479
1283077
1589733
936152
1542477
2740802
756275
1168478
1486472
753084
889953
908819
753084
1883369
1283077
908819
753084
445686
455364
1283077
889953
2023996
444860
889954
2686266
753085
10689
908819
753085
889953
2740800
753085
1175654
948071
1278479
2014434
889954
1536592
2268578
1542477
948071
2590946
2801477
444860
1278479
948071
268746
753084
908819
1557035
268746
1278479
2686251
948071
948071
2772074
1278479
1327982
1327982
1032893
948071
908819
948071
455364
112023
948071
948071
455364
455364
908819
948071
889953
2686266
2686266
1332145
1327982
948071
2686246
948071
1327037
948071
2686266
2686245
2801477
565140
889953
1527524
908819
2686266
2686251
444860
2023996
2175295
1283076
2023996
10704
2023996
1493511
908819
2023996
2801477
1283076
2801477
268746
238854
2686245
1493511
2801477
2801477
2801477
2801477
455364
444860
2743781
2023996
2801477
2801477
1493511
1883366
2023996
1913591
753084
2591041
2686251
1033977
2801477
908819
2801477
1493511
565140
2801477
2801477
2023996
251749
2801477
2801477
1150991
2686251
908819
2686245
1883368
1573458
2686245
2686245
444860
444860
2268578
2686251
2801477
2686247
2801477
444860
1567014
2801477
444860
2801477
1493511
1283077
2801477
2801477
908819
2801477
2686245
756275
444860
1033977
908819
753084
2023996
2801477
444860
2686251
908819
1283077
1536592
889953
1116482
1283077
948071
908819
2686266
889953
251749
2686251
2686273
1283077
1283077
948071
2686266
1557034
753084
908819
455364
2801477
908819
2686251
455364
753084
1033977
1815522
753084
2686246
754042
194699
908819
1283077
2686251
1815968
908819
445688
445683
2801477
2301529
756280
908819
889953
1127518
2686246
1168478
2686251
1542477
889953
2801477
2023996
908819
754042
242527
2801477
1283077
1283077
754042
1557034
908819
889953
754042
1542477
908819
354260
908819
445683
908819
2686266
754042
2268578
2686247
754042
753084
268746
753084
1542477
2686266
2801477
294631
889951
908819
908819
908819
754067
909297
2686246
908819
1168479
2801477
2686251
444860
908819
908819
2686266
444860
754039
1332145
2743801
2686251
948071
908819
2023996
908819
1026955
2801477
909297
1815521
754042
2686266
1168479
2772074
1969841
909297
2686266
2023996
2023996
753084
696472
889951
1541819
2100130
908819
2801477
1033977
2801477
908819
238854
909297
2686251
251749
889951
908819
2023996
444860
908819
908819
2801477
2023996
908819
756275
2686251
444860
908819
2686251
908819
616674
1586713
2801477
908819
1283077
1283077
756275
908819
908819
1026955
753084
908819
444860
2686247
2801477
445686
444860
1542477
1168479
2547425
2686247
753084
2801477
2686251
1283077
444860
908819
2743781
908819
909297
2678601
1557035
908819
1557033
1883369
753084
444860
910474
2743781
2053653
753084
188350
2743801
909297
268746
753084
908819
753084
444860
294631
294631
444860
2686266
981335
2801477
756275
194699
238854
238854
188350
2686242
908819
908819
2686246
1327971
2801477
1542477
2488788
2301529
754042
2686246
1168478
889953
753084
908819
455364
889953
753084
340435
753084
2801477
238854
1536592
444860
2686246
2686266
1493511
889953
1327970
948071
1572745
1912492
444860
1327971
2801477
1327037
1328030
444859
753084
2483719
909297
2023996
444860
889954
112023
1815968
908819
2686251
908819
1557033
2740802
889953
1283077
908819
1493511
2099338
908819
1536592
754059
756276
455364
2686251
2686251
929832
169683
2601643
1168478
1036616
260149
1328030
444860
2801477
1328030
444860
1542477
445688
889954
2801477
2801477
2801477
1557033
2686247
753084
2801477
2801477
908819
2801477
2801477
2801477
2801477
2759393
2801477
1527524
251749
2801477
2801477
2801477
2801477
1168479
2301529
2801477
1586714
753084
2801477
2801477
2801477
2801477
347327
2801477
2801477
1873698
2801477
2801477
2801477
2801477
908819
2686266
2801477
2801477
2801477
753084
753084
2023996
754042
2801477
2801477
2801477
2686242
2801477
444860
2801477
2801477
2801477
2801477
445688
2801477
753084
1527524
1308863
2686251
2801477
2686246
2801477
496874
2801477
2801477
753084
753084
2801477
2801477
2268578
2686266
756275
2801477
2801477
2801477
2686242
2801477
2801477
753084
455364
2801477
2801477
2801477
294631
753084
2686245
2801477
2801477
2801477
2801477
2801477
2686266
2801477
2801477
753084
2801477
2801477
2079426
2029657
455364
2801477
2801477
2801477
753084
2801477
1283077
2801477
753084
2801477
2686247
1542477
753084
2801477
2801477
2801477
2801477
2801477
2801477
445688
1542477
889951
2743781
2686266
2801477
2023996
2686247
2801477
2686251
1527524
2801477
2801477
2801477
2686266
1168479
294631
2801477
2801477
2801477
2801477
2801477
2801477
2801477
909297
2801477
2801477
2801477
2801477
2686242
2801477
908819
2801477
753084
2801477
753084
2801477
2801477
2801477
1168478
753084
2801477
2801477
2801477
2801477
1084719
753084
2801477
2801477
2801477
2801477
2801477
2801477
2801477
1168478
2801477
908819
2801477
2801477
753084
2801477
2801477
2801477
2801477
753084
2801477
2801477
2023996
2801477
2801477
2801477
2686246
753084
2801477
1033977
753084
2686266
2686251
238854
2686266
2686266
444860
2686266
1493511
444860
555387
869662
2268578
2686266
2686251
2686266
1168281
2801477
2686266
2801477
1557033
908819
908819
1557033
1283077
1557033
869662
909297
908819
2686266
1572712
2023996
2686266
2686266
2801477
753085
1283077
1168479
1557035
948071
2686266
754042
2801477
2301529
2686266
754042
268746
1293540
2268578
948071
2686266
1168478
948071
2100130
908819
948071
1527770
2283303
455364
2025360
2801477
2686246
908819
455364
908819
1542477
1815522
2023996
889953
2743826
444860
908819
445692
1883369
2801477
294631
754042
1168478
268746
1327971
1327970
753084
2743826
754042
294631
908819
1880590
1327971
1283077
1815582
238854
908819
1283077
444860
908819
753084
444860
1327971
948071
1897532
1913591
756275
1278479
2100130
908819
1327971
1527524
753084
238854
2601643
1168478
1913591
2023996
2686266
889953
1880590
1542477
753084
444875
268746
455364
1965368
444860
1168479
2686246
445684
754042
1283076
2686251
2801477
2686251
251749
753084
2599845
2686251
753085
2686266
238854
2686247
908819
1168479
2686251
2041344
2686251
268746
238854
455364
2801477
2686251
268746
889953
753084
2801477
2283025
1327037
2686245
1168479
754042
909297
2686266
2686245
2686266
754042
2023996
1965482
2759732
1880590
754042
2686251
1327037
1206110
444875
444860
2743801
2686251
1327970
455364
2801477
2686245
1586713
496874
238854
948071
444860
294631
2023996
908819
2023996
889954
909297
936152
2801477
2686251
2686245
908819
1168479
756275
2686266
948071
1493511
908819
2686266
242527
268746
2023996
523909
1883369
238854
908819
754042
2023996
908819
908819
908819
444860
908819
2686251
908819
2023996
2686246
2686247
908819
444860
908819
2015853
1168479
908819
908819
753084
2686246
1969841
2023996
616674
948071
756277
2801477
936152
455364
455364
948071
2023996
908819
1168478
909297
2029657
1283077
909297
2725629
2686266
268746
908819
2801477
908819
2686251
2686266
936152
665884
1283077
546805
2801477
2801477
1557033
2801477
2686242
908819
1557035
1572743
1557035
1557035
1116482
1557035
444875
2801477
114777
2801477
268746
908819
1557035
1557035
1168479
1127518
10704
1557035
294631
455364
1557035
2023996
1557035
1557035
2686251
753084
908819
908819
1542477
1557035
1557035
908819
753084
1557035
753084
1414739
496874
2686266
194699
546805
1168479
753084
948071
1557035
1557035
1557035
455364
2686266
2023996
889951
10704
1557035
1557035
1557035
2686266
2041493
1168478
754042
2686245
1557035
1557035
1206110
445688
1557035
1557035
238854
455364
2801477
2801477
455364
1283077
1283077
1557034
2801477
753084
2545435
1557035
1493512
1557035
1557035
1542477
1557035
908819
2801477
753084
948071
885867
2686266
1883369
756276
2686245
1557035
1557035
1557035
1557035
238854
1557035
1557035
1969841
908819
2268578
1557035
1557035
908819
2547425
908819
1542477
2801477
2686247
1168479
753084
455364
2023996
445686
455364
756276
754041
754048
444860
908819
2743781
1168479
1168479
1168479
2686247
2704031
268746
546805
908819
546805
2686266
1168479
908819
546805
1557033
1168479
753084
2100130
2686251
444860
889953
2686251
2686246
2801477
2686251
444860
908819
2268578
1493511
2029657
753084
2023996
908819
756275
2023996
1493511
2686246
205869
753084
2743781
2801477
1958956
2801477
2686242
2686251
2801477
908819
2686242
1557033
753084
2743781
2801477
455364
1557033
1557035
908819
2686242
2723758
2686247
2599828
753084
908819
2686266
2743781
889954
2686266
444860
444860
2686266
889953
1168479
2686242
2801477
2023996
2686242
2023996
444860
444875
2686245
908819
1168478
1168479
2686266
2801477
251749
2743781
1332145
908819
294631
294631
753084
2686266
889953
1567014
169683
2686266
2686245
2686251
546805
2079426
2686242
1557033
753084
2801477
1168478
2801477
2686242
1557033
908819
10704
2772074
1557034
889953
908819
1168479
753084
1557033
536466
908819
1883366
1493511
238854
444860
2686242
2743781
908819
1557033
1187128
2686251
2686246
546805
2801477
205869
444860
889953
2686246
2743826
2723758
908819
2801477
1283077
908819
2686246
1883369
2023996
2686266
1168478
444860
908819
2686245
753085
1557033
889953
2686266
444860
908819
2023996
753085
1168479
753084
1168479
1883368
2686266
1493511
2023996
2686266
908819
1880590
889953
2010329
455364
753084
546805
1557034
455364
504346
2686251
382262
1493511
2686247
1168478
1283077
2686251
2759393
948071
2686266
2686266
2686251
2686251
2801477
2023996
2801477
2743801
1493513
2023996
1033977
2686266
2686247
2686251
2801477
754042
2686245
2801477
2801477
1283078
294631
1168479
753084
908819
908819
2686251
1079998
2741074
754042
242527
2268578
2686245
2801477
444860
909297
2801477
268746
753084
908819
1327037
908819
936152
2686266
455364
1168479
2500581
756276
908819
2100130
756280
753084
1880590
205869
1327981
2801477
444875
2686266
908819
1557033
2686242
1493511
2686245
754067
251749
455364
936152
1168479
2686247
2023996
1168479
1873996
2686247
908819
2801477
948071
444860
1573458
444860
1327976
753084
754042
444860
2686246
2801477
2801477
753084
244310
2686251
756276
2801477
2686251
948071
445686
2517973
948071
294631
2743826
753084
756275
948071
909297
756276
227720
908819
2686266
455364
2686266
2743826
2686245
2023996
1481785
1327981
2686251
908819
1527524
908819
294631
1391659
320122
908819
2079288
1168478
49964
2250361
765765
1168479
1168479
2686266
2686266
753084
1983572
1536592
251749
908819
948071
2686251
754041
948071
2686246
889951
1206110
2100130
908819
445696
2686242
1557033
2686246
908819
2686251
294631
1557035
753084
1168479
1567014
268746
1168479
10704
2301538
1880590
1891703
908819
908819
2801477
1168478
908819
2686242
2484217
1168479
2686251
2686245
2743826
2743826
908819
1283076
1033977
1168479
753084
455364
889953
2686266
756280
2743826
2686251
981335
1168479
238854
1033977
1168479
1557033
2743826
1033977
1168478
2743826
753084
1168479
2686266
2801477
1557033
347328
908819
2743826
2686251
1168479
1168479
754067
2686251
2686246
2686251
2419971
2686266
1332145
2023996
1880590
1586713
1168479
2743826
908819
754042
753084
2801477
2686266
242527
994601
889953
877240
2686246
2686245
1283077
1278485
2023996
2590946
238854
2686251
658401
1536592
753085
909297
445693
2686266
2801477
2686266
2686266
2686251
908819
948071
1332145
2686245
455364
2023996
242527
1278479
754042
756275
693272
756275
908819
2686266
1557033
908819
2801477
2686266
1168479
2686245
2686251
1557035
2801477
2801477
1557033
2686251
753084
2023996
242527
2686245
2686247
444860
889951
1168479
2686266
1332145
2041212
889953
444860
908819
948071
2023996
2557582
948071
2801477
2686266
1283076
2023996
1328030
753085
2268578
2686266
754042
251749
294631
2686266
49964
908819
2686266
444860
1168479
1557033
555387
2801477
908819
1168479
2686245
908819
2686247
555387
268746
1557033
1168478
2014434
754042
908819
908819
1168478
908819
1557035
2801477
205869
2686266
2686266
2100130
2801477
2562175
936152
2686266
889953
1283077
2686245
1557034
2686266
1883366
2801477
756275
1327974
1168479
1168478
238854
2023996
2686251
889953
1969841
1168478
908819
1168479
1969841
455364
294631
908819
948071
268748
1278479
322019
444860
754039
1168479
1327974
2686251
1325953
2686251
1557033
1328030
753084
1814283
1283077
2743781
1328030
2801477
268746
908819
889953
936152
1278479
294631
1327935
1328030
948071
1327974
753084
2023996
1557033
1168479
1283077
1557033
169683
2743781
2686251
2686251
455364
444860
2686266
2801477
1880590
889951
1567014
445688
1880590
2801477
2743826
909297
444859
1542477
194699
1542477
753085
754042
2686266
2686266
1542477
340435
936152
294631
889953
2743826
1168478
1897532
169683
2686266
1969841
455364
1327974
2023996
2743781
2743801
663241
908819
1493514
2686251
756275
238854
2801477
2686266
2801477
2801477
2686247
909297
444860
1168479
1137745
2801477
1486472
908819
445688
2686242
540066
2801477
444860
2588518
1536592
2801477
1168478
1168479
2801477
2801477
1283076
1332145
1880590
889953
2545435
753084
540066
908819
2686245
2686266
1137745
2686247
251749
2686266
2801477
2801477
908819
2743826
908819
2686266
948071
2686266
1168479
754042
1821560
908819
2743826
2743826
455364
1332145
1821560
2743826
2801477
1821560
455364
665032
1332145
908819
2686266
2801477
2686245
2743826
35241
438482
2686266
908819
2686266
444860
445688
2686251
1486472
2023996
2686251
1883369
2686251
1557033
2743826
2686266
444860
444860
1557033
754067
756276
908819
2801477
1536592
1541823
1283077
1168479
1880590
455364
2686266
1821560
1472912
1542477
2801477
1821560
2743826
908819
2686266
2041344
1168478
2743826
2686245
2686266
2023996
1325372
2686266
194699
1477404
455364
908819
2686266
268746
1983572
2716351
1897532
294631
2686251
1927024
444860
753084
445686
1168479
2801477
1557034
1527524
948071
2686245
1283077
2686266
908819
1552735
445683
1557033
2801477
2023996
1983536
2801477
2686251
2301529
1026955
1557034
2686251
754042
1434319
889953
753084
2686266
1332145
2686245
2023996
2023996
889953
444860
908819
251749
455364
908819
2686247
2686251
1278479
2686245
455364
2686245
2686266
2023996
2686266
205869
2662283
756275
1557033
2741076
908819
2686251
1983572
2801477
1557033
2686266
1897532
753085
948071
2686251
455364
889953
2686251
1880590
2301529
268746
756275
2801477
2686266
756275
2686251
2686266
1557033
2801477
909297
2686266
1557033
2023996
1897532
2686279
2686266
1327970
948071
2301529
753085
948071
1033977
2301529
889953
753084
2686251
2801477
1883369
444860
1283077
2686251
754042
1168478
2282904
2686251
1391181
2686245
444860
948071
2686251
908819
948071
1168479
2686266
294631
2686251
1168478
2686266
908819
908819
2010329
294631
2686266
948071
1168478
889953
908819
908819
2686245
2686246
294631
1883369
268746
948071
908819
438482
444860
908819
2686266
2686266
2686251
936152
2801477
2686266
242527
2686266
268746
753084
756276
2801477
948071
445696
1573458
1283077
2686245
455364
251749
1527524
10665
2801477
1557033
437444
908819
889951
2500574
1283077
437444
756276
2801477
455364
908819
437444
948071
1883368
455364
2801477
437444
294631
2743826
2268578
437444
936152
2801477
2686266
2743826
908819
2743826
2743826
2686246
2491321
437444
1527524
444860
1327983
455364
1052673
908819
2301561
1283077
1557034
445684
908819
2686266
1113547
1283076
2301561
455364
908819
2686245
2801477
1220601
1162306
1113547
889951
908819
1278479
1278479
2743826
1327971
908819
1283077
444860
2686266
268746
2743826
948071
2743826
2801477
2743781
908819
2743826
908819
908819
908819
251749
2801477
2743826
2743781
753085
1883369
908819
2686251
1168479
2023996
908819
2023996
546805
1536592
754042
1969841
444860
909297
2686266
2686251
1536592
1168478
908819
455364
1283076
948071
1273711
908819
1536592
948071
455364
2743826
908819
10276
908819
936152
2801477
1168479
1278479
2686266
546805
2053653
2686251
948071
948071
665032
2686266
2801477
268746
1883368
46021
2686266
565140
251749
2743826
2686266
889954
1557033
1557035
2801477
1567012
251749
1493511
2743826
908819
1486472
2686266
2743826
2801477
2301621
176652
1815522
2708562
2686251
540066
1168478
2686247
1557033
753084
1557033
2801477
753084
2023996
555387
340435
1557033
2686245
756275
1557033
948071
1168478
753085
754042
2023996
1283077
1880590
1557033
2743826
2686266
1557033
1527524
1557033
2686251
908819
1033977
2801477
908819
565140
268746
268746
753084
2283026
2686266
2268578
2686245
546805
2801477
2686266
756275
2686266
909297
2686245
251749
1283076
399781
2743826
2686245
2801477
2686247
455364
1557035
205869
2743826
2686266
382262
908819
2743826
268746
1168479
2686266
2686245
444860
753084
2686242
268746
2686266
2686266
2801477
455364
2743826
2686266
188350
294631
1168479
1168479
1283077
1557034
908819
1168478
2686266
444860
188350
756276
2079288
2686266
35241
754042
1486472
753084
1557034
1168479
753084
2743826
1880590
2743826
2743826
2740801
909297
455364
994601
1327971
2686266
2759732
889954
1168479
445686
2686266
889954
2801477
908819
2686266
1327971
2686266
251749
1557035
2079288
1328030
2743826
2686266
753084
753084
2801477
2686266
908819
244310
1283076
1536592
2686251
908819
1815521
1536592
2686266
340435
2741075
1493511
2743826
2743826
2517948
1327971
268746
10704
2023996
908819
908819
936152
2743826
2686245
2801477
2801477
753084
1586715
2023996
754042
889953
444860
908819
2723758
753085
889953
2686266
2686266
2743826
2801477
445688
2801477
1815521
2801477
2743826
2036055
753084
2023996
2801477
294631
2801477
1557033
445692
1327970
1557033
2686242
753084
444860
1557033
908819
2743826
1589733
2686242
35241
756276
2686242
2023996
753084
2686251
753084
908819
268746
2743826
2079426
2801477
1527524
889953
2801477
1557034
753084
753084
445688
908819
753084
2801477
2801477
2801477
1883369
753084
753084
753084
889953
889953
445688
2686266
2686242
908819
1327970
889953
2686242
2686266
2686245
2686266
889953
2743826
2801477
908819
908819
2801477
2801477
2686266
753084
889953
2686242
2686242
2801477
2686242
35241
2686266
2023996
251749
251749
2801477
2801477
2801477
2686251
2686242
2686242
753085
2801477
2686266
2801477
2686251
2801477
2686242
2743826
2743826
268746
753084
2686242
2686251
2686242
2686245
2686245
444860
2743801
2686242
1883369
753084
2686251
753084
2743826
2686242
2801477
1486472
753084
2686242
889953
1283077
2686242
1391659
340435
2686266
981335
1557033
2686242
2023996
1557033
908819
1168478
2772074
1168479
889953
754042
2801477
2743826
2743826
2686251
2686266
2686245
2743826
2686242
2801477
1527524
2041344
1527524
1527524
1527524
1493513
1527524
2029657
1527524
1527524
1527524
1527524
908819
2023996
2696426
2686245
1527524
1880590
1527524
2686245
1527524
445686
1527524
1527524
754042
1527524
1527524
1527524
1327985
1527524
2686245
1527524
1527524
1527524
1527524
1527524
756276
2801477
1527524
1527524
909297
2743781
2686245
1527524
1527524
1527524
1527524
1880590
1327037
1493511
205869
2801477
1527524
1527524
2772093
2686245
2686251
1308863
1168479
2686245
2686251
1283078
908819
1527524
1527524
1527524
2686245
1527524
72201
2686245
1527524
2801477
908819
642926
2686245
1527524
756275
1527524
1527524
1527524
1137745
1168479
536466
1527524
2686245
2079426
2801477
1542477
1527524
1168479
753084
1527524
1527524
2686251
242527
1527524
2686251
2716351
1527524
1527524
936152
1283076
2686266
1527524
2041344
1527524
1168479
251749
1527524
1527524
1527524
2686251
1527524
1527524
1527524
1527524
444860
1527524
2686266
909297
1527524
1527524
1527524
1969841
1527524
1527524
1527524
908819
1527524
1527524
1527524
445688
1527524
2686245
2743781
908819
2507858
2743781
1527524
756275
2686245
1527524
445686
2801477
2686266
2686245
2743826
2686266
139872
908819
2801477
2743826
756275
2686247
294631
2801477
2743826
1278479
2023996
2743826
35241
2268578
908819
2686266
2079426
1283076
889953
2686246
2686245
444860
908819
2686245
2686266
753084
2686245
2686251
2686266
444860
1283078
2743826
756275
546805
444860
1168478
2686251
2686266
2743826
2686266
2743826
2686247
1283076
2686245
2686245
2801477
2686266
444860
2686246
2686266
205869
1880590
255431
2801477
1137745
244310
444860
908819
2743826
2686266
1887641
880159
444860
2686266
2686245
2759393
2686266
2686266
2686266
2686266
2743826
251749
2801477
2801477
2743826
889954
2686251
2743826
2743826
444860
2686266
1883369
2686266
251749
2801477
2562175
616674
294631
2686251
2686245
455364
445688
2686251
948071
1327982
1557033
2686245
2686266
2023996
2801477
2686266
1283077
1168479
1168595
445688
2686266
2686251
1883369
2686266
1168479
1557034
2743826
445688
2100130
1168479
2686266
445688
455364
2801477
1542477
242527
2686245
112023
1536592
1168478
2686245
2686251
1168479
2023996
238854
948071
948071
908819
936152
2027899
1168479
2686266
2686245
1168479
320849
908819
753084
2023996
2108134
2743826
2023996
2686266
112023
2023996
205869
2686251
445688
444860
2686245
242527
753084
908819
909297
444860
754042
1814284
2743826
756275
2801477
445688
1168479
445688
948071
444878
889954
869662
1168479
948071
2743781
2743826
2801477
2686266
2686266
445688
445688
2023996
444860
908819
948071
948071
294631
908819
869662
2801477
251749
294631
1880590
455364
2023996
2801477
1486472
2801477
1586714
753084
444861
908819
455364
2686266
754042
1527515
908819
1542477
1283076
1883369
1026955
205869
756275
2801477
294631
444861
2041493
1557033
1880590
2743826
444860
444860
2686251
2743826
2743826
294631
445686
1557033
445688
1542477
909297
268746
1542477
2743826
294631
2801477
444860
294631
2686266
2743826
1283076
2686266
2743826
2686246
294631
2743826
1557033
908819
2686258
755272
908819
1880590
2268578
2743826
2686266
2562175
908819
1168479
444860
2743826
1168478
2743826
1542477
294631
2801477
1542477
1542477
1327985
294631
1542477
2743826
2743826
909297
889954
2801477
2686251
2686266
444860
2743826
981335
444860
2686245
2801477
908819
754067
2686266
1327971
1557033
2686266
2686266
1283077
1168478
2743826
908819
1557033
908819
2743826
2686245
2686247
948071
496874
693272
1283077
2743826
2743826
536474
889953
2743826
1557034
908819
1327971
2686245
2743801
908819
2686245
455364
2743826
2686245
2801477
2772511
1168478
756276
1283077
2743826
1168479
1557033
2743826
1557033
444860
2743826
251749
2283267
948071
1206110
2686266
909297
908819
663241
753084
1557033
2801477
908819
2686245
445688
1033977
2686245
562742
1557033
948071
1168479
2686266
2686266
551895
2743826
2686266
1283077
1168479
908819
1852629
909297
2268578
1557033
2545435
2772074
908819
948071
2686245
2743826
1493514
2686266
2686245
2801477
908819
2283303
2743826
753084
2686245
205869
1573458
2743801
2686266
2743826
1283076
2743826
2686266
444860
2023996
1206110
908819
909297
1572712
2743826
444860
753084
2772074
2686266
2686258
1168479
2686245
2686266
2686266
2743826
242527
2484217
2686266
2686266
2686266
2743826
354260
2686266
2743826
2686266
2801477
1913591
2686266
1168479
2686251
2743826
2686266
2686266
2743826
2686266
2686266
909297
1273738
1168478
2743826
2686266
2801477
2686266
1168479
2686266
2686266
2686266
1493511
444860
2283303
2743826
2686266
2743826
2743826
754042
444860
2686266
2686251
2801477
2686266
35241
1983572
1873891
1168479
2743826
2686266
2743826
2686266
1493511
444860
2024264
756276
2743826
1536592
2743826
2686251
889953
670252
2686247
2740801
909297
2023996
2023996
2686266
2686266
2686266
2686266
1527524
2743826
1168479
2686266
2743826
1137745
2743826
2743826
2743826
1273711
1327776
2686266
2743826
2743826
2743826
268746
2743826
2743826
2510464
2686251
1527770
2743826
756275
2686251
2743826
908819
1357423
2743826
268746
268746
2801477
445686
908819
1883365
908819
2743826
2510464
1168479
2743826
2743826
908819
2743826
2743826
908819
2759732
2741076
908819
2743826
1168479
1557034
2686266
1589733
2801477
238854
238854
2743826
753084
1327971
908819
1168479
1283076
2686266
1168478
2743826
2686251
268746
756275
2801477
1557035
2801477
2686266
2743826
2027899
948071
2510464
1557033
908819
2743826
2743826
908819
238854
1168479
908819
755272
2743826
2023996
2743826
908819
455364
251749
2743826
194699
1557035
340435
1527770
889954
2743826
889953
2801477
908819
1557033
455364
2743826
1557033
2686251
238854
169683
1308863
1573458
753084
2686251
340435
1527524
753084
2743781
1357714
1327037
2686251
1536592
1327981
2743826
1168478
340435
238854
1327971
1958956
2801477
948071
2301529
1557033
936152
2686245
2743826
908819
889954
753084
2686245
2686245
546805
1026955
2686245
2743826
340435
1527524
2686242
294631
948071
2686242
753084
2686251
2686245
1897532
1557033
2686245
1527524
2743781
546805
238854
908819
2686251
2686245
2772073
2686251
2743826
1327971
1536592
242527
2801477
753084
340435
1168479
445700
340435
2686245
936152
948071
1493511
455364
2053813
2743826
2510464
169683
251749
1327971
2686242
908819
2686242
2801477
754067
340435
2743826
251749
1573458
2686266
889953
2686246
2801477
2686245
2686245
2419971
889951
294631
1527524
2743826
294631
2686247
2686245
2686266
1168478
889953
2686251
696472
1557034
444860
2301561
2743826
2686266
2686245
455364
2686266
929835
2686266
756275
1168479
2743826
2801477
2708562
251749
2301561
35241
909297
2743826
1821560
2545435
455364
1891703
889951
2686266
2686266
2686266
2743826
444860
1168479
2801477
2301561
1137745
1327985
2686245
2801477
251749
444860
2743826
909297
2686245
445686
1327981
1327971
2801477
948071
2686245
2743826
2686251
2743826
2301561
2301561
981335
2023996
2743826
1962671
1883369
2743781
2743826
889951
2740801
2686245
693272
2801477
2686266
2686266
1883369
1503929
948071
2301561
2686245
1168479
2743826
1283076
1542477
2801477
2686266
658401
1283076
1168479
2743781
444875
2743826
889953
753085
496874
455364
1283076
2686245
1327971
1883369
1113547
909297
35241
1327971
1327983
2686245
2686266
2686245
1527524
2801477
2743826
2686266
2686245
2743826
1493513
2686245
2686266
2686245
2301561
455364
908819
2743826
2686245
445686
2801477
555387
2686246
2740804
2743826
2686242
1815522
2743826
2686251
2743826
2686245
2686266
1821560
2743826
2686245
948071
2023996
1327971
2801477
2686245
2686245
2801477
2801477
889953
754042
2686245
948071
2686266
2704033
889953
908819
2801477
2686245
1913591
1557034
1557033
1969841
948071
2182319
908819
2686266
2686266
2686266
1168478
909297
908819
756275
2686266
948071
908819
251749
1283076
2686266
2801477
2686247
2686245
753085
948071
2801477
754042
2686266
2283026
2686266
908819
1168479
948071
2686245
908819
1168478
948071
238854
536444
2686266
908819
1557034
2801477
754067
908819
908819
2801477
2686245
1417599
908819
2686245
909297
2686245
948071
1168478
2801477
2686266
2686266
948071
2686266
2686266
889954
1327037
444860
1417599
908819
1557035
908819
2686245
658401
1283076
2686266
2801477
2743826
1168479
2743826
1557034
2588099
909297
1880590
1814287
268746
268746
2743826
2743826
1327971
756277
909297
754042
2686251
889953
2743826
445688
2686251
2743826
1283079
1168479
753085
754042
1917232
2686251
1327971
2686251
756275
455364
1557033
2743826
2801477
546805
2743826
268746
2686247
754037
2686266
546805
2686251
2743826
756276
2301700
909297
2743826
72201
754042
1283077
1168479
1168479
2743826
546805
2686251
2743781
2743826
194699
1168479
2743826
2686251
2686266
1586715
268746
2686266
889951
444860
2268578
2801477
889951
909297
753085
354260
546805
2268578
1168479
1283079
279280
2041212
1168478
455364
1969841
1168478
1327971
2743826
1883369
754042
936152
205869
2686251
2801477
2686245
1084719
1586713
2023996
455364
2023996
2743826
2686266
2686266
2686251
2743826
2686266
268746
2743826
2686266
2743826
1283077
2686266
1327982
2686266
1327037
444860
2743826
2686266
753084
2686266
908819
2686266
2686266
2686251
2686266
2743826
2686251
2743826
2743826
294631
2686266
908819
2301621
444860
2686266
2686266
2686266
2686251
2686245
1557033
2686266
2686266
2686266
2801477
908819
2547425
1327037
2743826
2686266
2686245
35241
2743826
2686251
2686266
2686266
2686266
2686266
2686245
2686251
2686245
2686273
2686266
455364
2686245
2686266
2743826
2743826
445686
242527
2686266
2801477
2743826
2686251
2743826
2686266
2547425
2686266
981335
754042
2686251
2743826
2686266
2686266
2686245
2686266
2801477
2023996
445683
2686251
1168479
1880590
909297
936152
1168479
908819
455364
2686251
908819
2801477
936152
2686245
908819
756276
445686
1327990
2801477
909297
908819
908819
455364
908819
444860
2801477
194699
2023996
908819
2301529
908819
2686247
455364
1168479
2801477
2686251
1814287
909297
908819
2686251
1168479
2686247
2743781
2686251
2743781
445686
2743781
2686266
2686245
1168478
1168479
2686251
2801477
2801477
754038
908819
2686251
754042
2686251
908819
1880590
908819
908819
1168479
753085
754042
2801477
908819
455364
908819
1168479
455364
1168479
1168478
754042
2686247
2686251
2686247
2023996
2743826
2686245
2743826
2686251
1557033
1168479
889953
2743826
294631
948071
2686251
2743801
2743826
444860
2686245
1033977
10704
1033977
2301529
382262
455364
2686245
2023996
2743801
2547425
2099624
2743801
1572745
889951
2743801
1527524
1880590
2023996
2743826
754048
2743826
889951
1969841
1969841
2686245
1557033
2743826
1168479
2686245
1327982
869724
2686245
227720
1815968
2743826
2743826
2100130
2801477
2801477
2686266
1278485
1283076
2686245
2023996
1034137
2801477
889953
444875
1168479
753085
754042
1852629
948071
1557035
445685
2686245
2801477
2686251
382359
1327974
2801477
2686251
1493511
2686251
1542477
1283077
2107709
2772074
1391659
1168478
496874
2686245
1332145
754059
1542477
2686245
546805
2686245
1137745
2740801
2686266
444861
1283076
2743826
294631
1109717
2686245
2686245
2023996
2041493
2716351
2686245
546805
320122
1536592
1283077
1542477
2686251
2743826
754042
2686245
268746
1332145
205869
2743826
2686245
205869
1168479
445688
1541819
2686245
2696432
2686245
1542477
2743826
2686245
1557033
2743826
2686245
508419
2686251
1197951
1472912
2686245
2686242
2686245
496874
2686245
1109717
255431
1283077
908819
753084
2801477
2743826
869724
2686245
1815522
2010329
1109717
2686266
2686251
2743826
1206110
2743826
2743826
908819
2301529
1283077
1567014
2686266
2801477
2686245
2743826
1283077
2686266
2686245
347328
1821560
948071
2743781
1448273
2686251
2686245
1283077
2801477
2743826
2743826
496874
555387
12643
455364
2743826
1557033
2801477
2079426
754042
551790
1278479
1328030
2301529
2686245
2686245
1168478
754042
1542477
244310
1168479
889953
2686251
2743826
1852629
2743826
2686266
294631
2686266
889953
753084
2801477
1536592
2743781
444860
1168479
2686266
1168479
1897532
1542477
2686266
2686245
869724
1448273
1542477
2743826
2743826
2686245
1472912
2743826
2686242
445692
2686266
2801477
268746
244310
869724
754042
1168595
2801477
1557033
2510464
2743826
455364
2686245
948071
496874
2801477
1296661
2801477
10685
2743826
1026955
2743826
948071
169683
2555548
2743826
1557033
616674
1308863
444878
2686266
2686245
255431
2686245
268746
2686266
2686266
1308863
2686251
2743826
1026955
2743826
255431
1557033
2743826
1327971
2743826
340435
2023996
2743826
1542477
2743826
658401
909297
294631
1206110
2686245
2686245
2565501
2686245
227720
1168479
444860
2686251
2686266
2023996
251749
2743826
444875
1557034
2743826
2027899
2686245
756275
2743781
2686245
2686266
2686245
2686246
1542477
1278479
1542477
2686242
889951
756275
294631
948071
2686251
2041347
2686251
948071
1542477
2686251
2743826
1278479
2686266
340435
540066
2743826
754059
2743826
889951
1883369
1542477
2743826
2801477
2801477
2686246
2743781
1536592
455364
2743826
2743781
2686251
2801477
1557033
754059
2743826
929835
889953
889953
2686242
909297
2743826
2775045
753084
2686266
2801477
444860
2686242
2743781
1327981
255431
2743781
2743826
444860
1206110
2743826
2510464
445683
1168479
2743826
455364
2743826
2686266
1527524
445688
2686245
909297
889953
1542477
1542477
1586713
340435
754037
2743826
2686245
1168479
1542477
1283077
455364
2686245
2743826
2743826
753085
10256
2772511
2801477
2743826
455364
754067
2686242
1109717
2686245
2743826
10682
2743826
2686245
908819
1965482
438482
1340810
1557033
1493510
908819
1486426
251749
2023996
2801477
929832
1206110
455364
1542477
1168479
2743826
1557035
889954
2565501
753084
1127516
1557033
929832
2743826
2686266
1536592
2686245
1586715
2743826
889951
340435
2743781
444875
948071
2801477
1168479
294631
1557033
1168479
555387
2023996
2686251
1557033
1542477
2801477
1168479
1814287
251749
1168478
354260
455364
1814287
2743781
455364
1168479
1168479
2010329
205869
2686266
2801477
2801477
754042
2686251
444860
1283077
2686266
2801477
2686245
35241
1168479
1526550
948071
2801477
2686245
2686245
2801477
1557035
2686251
2743826
2283025
2801477
908819
2686251
753085
1273711
1168479
2801477
1168478
2801477
1557033
1557033
754042
2686246
35241
205869
1278485
2686251
908819
880159
2686245
2686266
1168479
880161
2686251
1168478
2801477
2801477
2743826
2743781
2801477
2686245
2686266
981335
2686266
1283076
2743826
2686245
2023996
2686266
1278485
908819
2686266
2686266
1278485
2686251
2801477
908819
2801477
444860
2686251
2743826
754042
2743826
1283077
2743826
2029657
2283303
444860
2743826
1283077
10276
238854
1493513
2283303
2686245
294631
2023996
2743826
2686266
2801477
2801477
909297
1500757
455364
2268578
444875
205869
2686266
2686266
2743826
1168479
2686251
909297
2743826
2686266
1589751
2743826
2743826
2801477
1168479
2686251
2743826
2743826
2743826
2686245
2686266
2686266
2801477
555387
2743826
2743826
2483719
889953
2686251
2801477
1168479
2491321
1168479
1557033
2686266
1327037
2743826
2023996
1557033
260149
251749
1542477
205869
2801477
455364
1283077
1586713
2686266
2801477
2686251
444860
455364
2268578
2023996
2023996
268746
1527515
2801477
1283076
444861
294631
2686245
1168479
2686266
2801477
2686251
1557035
2801477
2686251
2686251
1036616
2686251
559189
1168479
948071
2801477
1557033
2801477
2686245
2801477
2772511
2772511
753084
1283076
2686251
2686251
2686251
294631
455364
2024264
2801477
2801477
1168479
2686251
1883368
444860
1493509
2743826
1168478
445688
948071
1815521
2743826
2686266
1168479
2023996
2686266
2686251
754042
1557033
2041212
1283079
2023996
754042
2079426
268746
2801477
756275
2686266
251749
2686266
2686251
1273749
444860
445686
251749
1557033
2484217
1814287
1883369
2268578
2686251
2023996
1327990
444861
2743826
2686251
2268578
455364
2686251
642926
2686245
1168478
2686251
2801477
2686266
2686245
279280
2743781
555387
2801477
2762400
1391181
455364
663557
2743826
2686266
2686245
2686266
2686251
2686266
2053653
756275
2686247
2801477
2686266
2686251
2686251
2686251
1493511
2801477
2801477
2686251
1273711
496874
1220601
2801477
2686266
908819
1557035
2562175
2801477
1283077
754048
1883365
2301529
936152
889338
305674
908819
444860
948071
2686266
496874
2686251
1897532
889953
948071
2686251
1557035
2772074
1197951
754042
981335
948071
2801477
2801477
2686266
909297
2686245
909297
2301529
908819
1527771
948071
948071
1557033
2562175
908819
2686266
1557034
2743826
2590946
1557034
238854
2762400
205869
2801477
238854
2041493
756275
889953
889953
1033977
908819
1572745
536474
754048
2743826
2686245
1168479
1912321
908819
1283077
948071
2801477
1283077
1969841
948071
2562175
2743826
2801477
294631
948071
948071
1327981
2686266
2801477
2686251
908819
658401
658401
2023996
1527524
444860
268746
2708562
1168478
2686266
2023996
642926
889953
496874
1586715
753085
909297
2686245
2686266
2686251
2686245
1572743
1557033
1527524
2686266
1486472
2743826
2268578
2100130
1327982
2686245
2301529
2801477
2686266
2686266
2743781
889953
889953
2686266
1572745
2801477
2743826
1113547
2801477
754042
2686251
753085
1168479
455364
948071
268746
1283076
2743781
1527524
2686245
1586715
2741077
1557034
205876
754067
1168479
2741077
2686266
1883366
2741077
455364
2023996
2686245
2686266
1168479
2686245
2686245
2686251
238854
2686266
2686251
1168478
1527524
2686251
1527524
2743801
2301529
2686245
2686266
444860
1327981
2686245
2100130
2686245
2686245
1026955
2591403
2801477
1527524
35241
1137745
2686251
2686251
238854
2801477
756275
445686
1557033
1557033
1527524
1573458
1557035
2743826
2741074
1557033
268746
2686251
2686251
1527524
2100130
1486472
1557033
1527524
2686266
2801477
2801477
1572745
1880590
2741074
268746
455364
444860
1883365
1527524
2686245
2686251
2686251
1557033
2686251
1586715
1557033
1327981
2686251
1586715
1168478
1883368
1527524
294631
268746
444860
455364
2686245
2491321
1557034
1283077
1527524
260149
2686266
2686245
2686245
2686266
1873889
2686251
889953
2801477
2025360
2686245
1586715
1527524
2686251
2686266
889954
2100130
35241
2801477
1586713
936152
753084
1536592
2686245
754042
455364
1168479
2686266
2686242
2743826
2686245
2743826
2801477
2801477
753084
2023996
2686251
753085
2686242
2801477
444860
2686251
2686251
2686251
2801477
2590946
2686242
2686245
2686251
2590946
2686242
753084
1327990
2801477
2686242
2801477
2743801
909297
2686242
2686245
2801477
889953
2686242
1527524
2686242
1168479
2686242
754042
2801477
2743826
2686242
880159
444860
2743781
2686242
2686251
909297
756277
1204517
444860
753084
2686266
2686245
72201
340435
2801477
2686242
1493511
455364
1557033
340435
2801477
2743781
2686242
2686242
2686245
1327971
2686245
1168479
2686242
2801477
2743826
1327971
1493511
753085
2686245
2743826
2743826
1917232
2301529
2686242
2801477
2686242
2686251
2686251
1357714
2023996
2801477
1792245
2743826
340435
889954
2743826
753084
2686245
2686245
2686245
2686245
2686242
2801477
2801477
756275
2801477
2740801
2743826
1327981
753084
445686
754042
1168478
2801477
2686242
2686242
444860
2686242
1897532
2686242
2686251
268746
72201
2801477
753084
2079426
2686242
2686242
2686245
2801477
2686242
2686251
2686245
2686242
2023996
753084
753084
1557034
2686242
340435
340435
2743826
1327971
2686251
2686247
1542477
2686245
693272
2686242
2801477
2686245
754042
2743826
2686245
2686242
2743826
2686242
2686242
2686242
340435
340435
2686245
1278479
2743826
2686242
72201
1206110
2686242
2686251
753084
2743781
2686242
2743826
2686245
754053
2801477
2686242
1557033
1493511
2686251
753084
1527524
2686251
546805
205869
1283077
2686251
2024264
1965482
1880590
1542477
205869
755272
1524882
1168478
455364
455364
2023996
1340833
205869
2686266
948870
1541823
2686245
2801477
444860
2686245
2686245
2743801
1557034
1589733
2686251
1493511
1536592
753084
2686245
455364
2686251
2686245
1573458
2743781
2743781
2686245
2743826
754037
1340833
2743826
2686251
340435
10256
755272
1283077
2686251
2686251
754042
1493511
444860
1206110
2023996
1557033
754067
1557033
616674
754038
1168479
2686245
1557033
1168479
2301546
1557034
1542477
2686251
72201
2686251
2743826
1283077
2743826
445686
2743826
756275
438482
2686251
1557033
279006
2100130
2686251
2686245
251749
2268578
2801477
2743826
2743826
2686251
2686245
444860
1168479
1589751
2100130
1557034
994601
2686245
2023996
294631
2801477
2686251
754067
2686242
2686242
2686251
437444
2801477
2686245
2023996
2743826
2686245
2743826
1527771
2686245
169683
756277
2023996
2772511
2250416
2743826
756276
889951
2686251
2491321
2743781
2686246
444860
2686251
2686245
2772511
2743826
2801477
754042
2743826
2250291
444860
2015834
1573458
2801477
2686251
2686251
444860
1913591
2772511
1917232
2686251
2686251
2801477
753084
2686245
1168479
753084
437444
2686251
2772511
1814287
1969841
205869
1557033
948071
2686266
2686251
2250291
194699
2686245
2686245
2772511
10276
889954
2686245
2801477
754042
754067
205869
2510464
2801477
2023996
2686245
2801477
455364
2801477
2743826
1327935
151539
2743826
880159
1415148
1168479
2023996
2686266
2743826
754042
2686245
2686266
444860
2686245
2545435
2743826
889953
242527
2686245
2686245
2686251
2023996
1273752
1536592
2686245
754042
2686245
2686245
2772511
2686245
2686245
1873698
2686273
1556290
399781
1814287
2686251
444860
1883367
2686245
889956
1838074
936152
251749
2686273
753084
251749
2686245
2023996
2686245
1557033
2315531
2686251
1283076
2686245
2686245
1883368
2801477
112023
1079998
2686245
238854
205869
2801477
2686247
2686245
754042
2686245
1536592
2686273
2686245
2743826
2268578
2686245
2743826
2686251
536444
1542477
756282
2041525
2686245
2716352
444860
2686245
2686245
1327985
2801477
2023996
2023996
753084
2588131
2801477
2686245
948071
2801477
2686245
2686245
2686245
2686251
1273752
2686245
753084
2772511
2686245
2023996
948071
1283076
753084
2686245
1557033
444860
1332145
2686245
2686246
2686251
1168479
2743781
2686245
889338
2686245
1197951
2801477
2686251
2686245
2686251
455364
2686245
1168479
2686245
444860
2686245
1168479
1168478
2686245
2772511
2686245
2801477
1283076
2686266
2686245
1168479
2491321
2686251
151539
754042
2741077
2772511
889954
2772511
344021
1407608
756275
2686247
2686246
99179
2743826
2686266
2686266
1852629
2686266
2686266
1586714
1283076
10276
2686245
2686266
1557033
2743826
1168479
1273711
2686245
2250335
2686245
455364
1327974
2686251
35241
2743826
1168479
2743826
2801477
10276
1567014
2686266
1168479
2686251
2686245
2686245
2686245
948071
2686266
2686251
1573458
1327983
2743826
1557033
2686251
1327974
1327974
2686245
754059
1557033
2686251
2686266
2686266
753085
936152
754048
2686266
2801477
1141136
2801477
1327974
1168479
1262539
2686251
444860
1168478
753085
1969841
2686251
756275
2023996
2686266
889951
1557034
2301529
2686251
2488789
444860
455364
2772511
889953
2686266
2801477
756275
2686245
2686242
2686251
2686266
2686245
2686251
2268578
2686273
2686245
445686
2686245
929832
1493511
1026955
2686245
2686266
2565692
889951
756275
2801477
294631
2743826
1204534
2801477
2686266
2686266
2762400
2743826
1206110
889951
889953
444860
2743826
2686266
1586715
1127516
1273711
948071
1557033
10276
2686266
2686251
2686266
2686251
2686251
2743781
2686266
2686266
2686245
1557033
1327974
2686266
1283077
2686247
2686245
2686245
1168478
2686251
1327971
455364
445693
2743826
2686245
756275
754042
238854
753084
2053653
2686245
2743826
756275
1493511
238854
2686251
1052673
2801477
1527524
2801477
2686266
2686245
1357423
2686251
889953
756282
693272
2686251
2023996
754042
2801477
2686245
1527524
2686245
948071
2686245
2686251
1168478
1273711
2801477
1026955
1168479
981335
2023996
1572712
536474
2772511
1327983
444860
2686251
2686251
455364
1283078
1814287
2053653
2801477
2686251
10276
1168479
1168479
1327971
268746
2686245
756276
2686245
2686245
444860
2743781
1283077
909297
2023996
294631
1527524
2301529
2686245
2686266
1477404
889954
1026955
2686266
2686251
2743826
455364
2801477
2023996
2743781
1168478
2686245
1168479
444860
2801477
2686266
1493511
2268578
2743826
75320
1283077
1168479
1283076
2686242
889953
1332145
444860
1327981
2801477
2801477
889953
1168479
2686251
2743826
2801477
1168478
1033977
2743826
2686251
2686251
2686251
2686245
2686245
2686251
948071
1168479
2772511
2743826
1168479
1536592
2023996
2283270
2301561
1328030
205869
1557033
1814287
2743801
10276
1283077
1586715
2686251
2686251
445686
2743826
1168479
2686245
455364
2686245
2591403
2686266
756275
2686245
546805
2686245
2743826
1557035
1168479
2686242
1283077
1815521
2686251
889953
1168479
2801477
242527
444860
2801477
2743826
2686245
2743826
2545435
1474867
909297
455364
2743781
754037
754067
756275
2686245
1814287
2743781
2743826
2686251
2743826
1814287
2010329
2759732
1572743
2743826
2801477
1327990
2301529
889953
2743826
1278479
2686245
1168479
2801477
2686251
2686251
268746
2686245
1868826
1589751
251749
2801477
2801477
756275
2686245
1168479
2686251
1814287
2686245
455364
2686246
2686245
2545435
2686251
2801477
2801477
1883366
2686245
2686266
2772511
496874
2686251
670252
756275
2686251
2686251
1278485
2686245
1557035
1168479
1168479
1815522
756275
2301529
1327983
2686251
1283076
1573458
2686245
2686266
756275
1026955
1557033
2686251
2686251
909297
2801477
754042
1536592
2686266
1883368
2801477
2686251
2686266
35241
1327971
2583039
889953
445686
2686245
251749
756275
2686266
2301529
294631
2723758
2686245
382262
2801477
2686266
205869
1880590
1283077
2686251
1168479
1557033
756275
1814287
1327985
2801477
444875
2686245
455364
1852622
1283077
2100130
2801477
444878
1493509
2686251
1965368
2686245
2743826
2801477
1557035
2801477
2686251
251749
2686251
2743826
2686245
2743826
2656617
1814287
1589733
2686251
2686251
948071
981335
2686251
2743826
2801477
2743801
1273711
2686251
754042
2801477
2491321
1168479
754042
2686266
2686251
2686266
2686247
2301529
756275
2801477
1883368
2686251
1113547
2743826
1168479
1113547
2743826
754042
238854
2686251
1557033
2686245
2023996
2686242
212035
754042
455364
948071
2686266
1283077
1176422
2686266
1168479
2772511
2743826
2801477
2686251
2686245
445686
2743826
2686242
2686251
2686245
1557033
2686242
10276
2743826
1527524
294631
2301621
753084
320122
2686251
1458842
1542477
2023996
1283077
756275
889954
616674
1465751
1969841
2686245
546805
2686242
2801477
1557035
2686266
1168479
1557033
1557034
2772511
1555202
1527524
2686245
1527524
2686273
2801477
1557033
1168478
2801477
2686266
294631
294631
1573458
2743826
2743826
2686245
2801477
2686242
2772511
1536592
2686251
2743826
2686251
1168479
2743826
1026955
294631
1557035
2686245
2801477
1557034
2772511
2772511
2686245
754042
2100130
1557033
756276
2686251
1474867
2023996
2801477
2743826
2686266
1527524
455364
340435
756275
2023996
2686251
445685
2801477
2686242
908819
2801477
340435
1168479
2686245
546805
1283076
2743826
2741075
340435
2801477
753085
1557033
444860
2686251
2023996
1493511
2025360
496874
1283077
1557033
1332145
2743826
1283077
2743826
382359
2743826
753084
1557035
2419971
1357423
936152
1168479
2741075
340435
2686245
2801477
2743826
2801477
760732
1327985
2772511
340435
2562175
2743826
455364
889953
2686251
496874
753085
2743826
205869
320122
753085
205869
2301529
2562175
1168479
445696
1278479
2023996
97195
2547425
1168478
2801477
687803
2743826
340435
2686251
2743826
2686251
1168479
2686251
948071
1557033
444860
2686245
2743826
753085
2743826
1206110
2743826
2023996
2743826
1555202
2743826
1493511
1168479
756275
2743826
1814287
2686251
2686245
2741075
754042
2801477
251749
444860
1168479
445696
2743826
2686242
1557035
1327985
340435
340435
1168478
1327985
2686245
242527
1557033
1026955
455364
2686251
2741075
1536592
2593360
2686251
279383
756275
2686266
455364
2743826
251749
1332145
205869
2562175
2743826
1168479
756276
616674
2686251
1557033
2562175
2801477
909297
753085
455364
869724
981335
756282
2743826
445686
10276
2686245
1814287
1493511
2023996
2686251
2686251
2023996
1557035
909297
10276
2743826
2562175
756277
2686245
2591403
2686251
2557582
1168479
2743826
2686245
445686
1493511
2743826
2686251
238854
35345
754042
2686245
754042
1026955
2743826
1557033
2686242
1357423
753085
2801477
1283076
2740801
444860
1557033
2686266
2686266
2743826
455364
1493514
2686245
2801477
753084
1916123
2801477
1557033
2686245
2743826
948071
194699
2686245
2743826
2023996
444860
455364
2743781
2743826
2686266
455364
2801477
1327990
2588131
2023996
2686251
455364
2801477
880159
2801477
2743826
2686266
2743826
1883366
2801477
340435
948071
1168478
2201436
1814287
1557034
444861
2686245
2686251
2686245
1557033
753084
1168479
2743826
1493511
2686247
455364
2743826
2686251
1283077
1176422
2686245
2743826
2743826
2686245
2686266
2588131
251749
2081603
2801477
753085
251749
2686247
238854
756275
1283076
2801477
2801477
2743826
2801477
1327971
948071
1567014
2743826
2743826
455364
2036055
889953
889953
948071
2743801
753084
1555202
1283076
2743826
455364
2686251
948071
1527524
455364
936152
2801477
1527524
2686266
2743781
909297
2686266
2686266
889951
445692
1527524
1273752
2686251
2801477
2023996
1917232
2772511
1527524
756275
251749
2023996
1527524
2686273
2686245
2686266
1557033
756275
2686245
2686251
1814287
2686266
2686245
2686266
2686266
948071
444860
2686245
909297
2686245
2801477
2686266
1557033
1527524
1527524
2686266
2686245
2268578
496874
1327982
2686251
1557033
2686251
753085
1527524
2686251
2686245
2686245
1527524
1327037
2686245
2686245
