221915
221915
221915
221915
455364
221915
292029
221915
307898
221915
221915
221915
221915
221915
221915
292029
221915
221915
221915
307898
221915
221915
221915
221915
292029
1262512
221915
221915
292029
1262512
221915
221915
307898
292029
292029
1262512
292029
307898
1262512
221915
221915
221915
221915
221915
292029
292029
221915
221915
1195076
292029
221915
221915
292029
221915
307898
221915
221915
221915
292029
221915
1041527
221915
221915
221915
221915
2268578
221915
221915
292029
1239385
221915
221915
221915
292029
221915
292029
221915
1239383
320849
221915
292029
221915
292029
1262512
221915
1028375
1239385
221915
1028375
221915
221915
221915
221915
221915
221915
292029
221915
221915
1340810
292029
1526408
221915
221915
221915
221915
221915
292029
221915
1262512
221915
221915
221915
221915
1007127
221915
221915
1526408
1526408
292029
221915
1524910
221915
292029
1526408
221915
221915
307898
221915
221915
2801477
1028375
221915
292029
221915
221915
221915
1041527
221915
221915
1526408
221915
221915
221915
760530
292029
292029
221915
1195079
221915
221915
221915
1883369
1262512
221915
221915
292029
221915
221915
292029
221915
221915
221915
292029
292029
1041527
292029
292029
760530
221915
292029
221915
221915
221915
221915
221915
1007127
292029
1007127
292029
221915
221915
292029
307898
1007127
2801477
1195079
1239385
1526408
1007127
221915
221915
1028375
292029
221915
1239385
221915
307898
221915
221915
221915
1195076
221915
221915
221915
221915
292029
292029
1007127
221915
307898
292029
221915
292029
292029
307898
292029
292029
221915
221915
221915
221915
221915
1262512
1007127
221915
1572703
292029
1239385
221915
1262512
1526408
221915
1524910
221915
221915
221915
1524910
221915
1239385
221915
221915
221915
221915
221915
221915
292029
221915
221915
221915
221915
307898
221915
1262512
307898
292029
292029
1262512
221915
221915
1262512
292029
1007127
1262512
221915
1262512
292029
292029
1524910
221915
221915
292029
221915
1041527
221915
221915
1262512
221915
221915
221915
221915
221915
292029
2268578
221915
292029
221915
292029
221915
221915
221915
221915
221915
292029
221915
221915
292029
221915
221915
221915
221915
307898
221915
292029
221915
1262512
292029
292029
221915
221915
292029
1262512
292029
292029
307898
221915
221915
221915
1262512
221915
221915
1239385
1239385
221915
221915
1586714
221915
221915
292029
1526408
1195077
221915
292029
221915
221915
1007127
221915
221915
221915
307898
292029
221915
292029
292029
221915
221915
1526408
1195079
1239385
1262512
221915
1262512
221915
292029
292029
221915
221915
221915
1526408
221915
1262512
221915
292029
292029
292029
1007127
1195077
221915
221915
221915
221915
221915
292029
221915
221915
221915
1239385
221915
292029
1526408
221915
1007127
221915
292029
292029
221915
221915
221915
1195079
292029
1239385
221915
1526408
292029
221915
221915
221915
221915
1195076
221915
221915
221915
221915
221915
221915
292029
221915
292029
221915
221915
221915
1262512
221915
221915
221915
221915
221915
221915
221915
221915
1526408
221915
221915
292029
221915
221915
221915
1239385
221915
221915
221915
221915
292029
221915
221915
221915
1526408
307898
221915
221915
292029
292029
760530
292029
221915
221915
221915
292029
221915
221915
1526408
221915
292029
221915
1239385
221915
221915
292029
221915
221915
221915
221915
221915
221915
1262512
292029
1195079
292029
221915
221915
292029
221915
1586714
1239385
292029
221915
221915
221915
292029
1007127
221915
221915
292029
221915
221915
292029
221915
221915
760530
1007127
292029
1007127
221915
292029
1262512
221915
1262512
307898
307898
221915
221915
1526408
221915
221915
221915
1195081
292029
221915
1041527
1526408
1526408
1526408
221915
1526408
1262512
221915
1262512
221915
221915
221915
221915
760530
221915
221915
292029
221915
1007127
221915
221915
1526408
1572703
221915
221915
221915
221915
221915
221915
221915
221915
1526408
292029
221915
1526408
1526408
292029
1526408
221915
221915
221915
221915
1041527
1526408
760530
292029
221915
1041527
221915
292029
1526408
1041527
1041527
2801477
2801477
221915
1572703
221915
1195081
221915
1526408
1526408
1041527
1524910
307898
251749
251749
1340810
251749
1195079
1586714
221915
221915
2801477
221915
221915
221915
1262512
1262512
221915
2801477
221915
292029
292029
1007127
221915
1007127
1007127
1526408
1262512
1526408
221915
1195077
221915
1526408
221915
1262512
221915
307898
1526408
1262512
1262512
1526408
1526408
221915
251749
1586714
221915
1007127
1526408
221915
1450142
221915
1526408
2801477
221915
2801477
1239385
221915
1815522
221915
2801477
292029
760530
1586714
2801477
221915
292029
1493514
251749
2023996
221915
1262512
1493509
1586714
2801477
1278402
1262512
2801477
2023996
1262512
2027899
2801477
1883369
1883369
1340810
2801477
2801477
2801477
2686246
1500821
2801477
1340810
268746
292029
2801477
445700
1815522
238854
760530
1883368
2510464
2686279
2268578
2801477
1883369
444860
1557035
1041527
2801477
2801477
444860
444860
1586714
238854
444878
444860
2801477
1340810
1340810
2801477
2510464
455364
1557034
444860
444860
2801477
2510464
444860
1524910
2801477
1815522
2023996
2801477
444860
2801477
754042
1586714
2027899
696472
444860
1557034
2801477
2686246
1557033
2686246
455364
2686279
1278479
2801477
1278479
2801477
2023996
1557034
2686246
1557034
221915
238854
1815522
2686279
2023996
2686246
2801477
2801477
444860
444860
2801477
1557034
1340810
2743781
2686246
2801477
446529
238854
2686246
2801477
2801477
2686246
754042
2801477
1239385
445685
446529
2801477
1557034
2686279
2801477
2686251
2027899
1557034
1557034
2027899
2801477
1557034
2801477
753085
2801477
2801477
2686246
1283077
1557034
2686246
754042
2023996
2099637
1340812
1557033
1557034
1883369
444860
1557034
2686279
1557034
2686246
753085
555387
1883369
2686246
555387
2686246
1283077
2686246
753085
2686279
2023996
238854
1883367
2686246
2801477
444860
2686279
2686246
2686246
2686246
2686246
2686246
444860
2686246
455364
1883369
869724
2686246
2686246
2510464
2023996
2023996
2686246
2686246
2801477
2686279
2686246
753085
2686246
2686246
2686246
1586714
754042
445686
2801477
444878
2686246
2686246
2686246
2686246
2686251
2268578
2686246
2801477
1883369
2801477
2686246
2801477
2801477
2801477
2686246
2801477
2686246
2686246
2686246
2686246
2801477
2686246
2686246
2686246
2023996
756275
756275
2686246
2772080
2686246
251749
2686246
2801477
2686246
2801477
1815522
754042
2686246
2027899
2686246
2686246
2686246
555387
2801477
2686246
2686246
2023996
2801477
2686246
455364
268747
2686246
1883369
2686246
2686246
2686246
2510464
2530116
2686251
754042
444860
2801477
2686279
2686246
2686246
2686246
754042
2686246
238854
2686246
880159
2686246
2686279
251749
2686246
2686246
2801477
2801477
2686246
2686246
2686246
2686246
2023996
2801477
2686246
1498168
880159
1325731
2686279
445686
756275
2686246
2801477
2686246
2686246
2686246
221915
268746
444860
2686279
2801477
2686273
455364
2741076
2686251
2686251
754042
2741076
910473
35345
2023996
754042
2686251
455364
754042
2686251
2510464
1557034
238854
2686246
2801477
2686246
2801477
2801477
1883369
444860
238854
444860
2023996
2686246
889953
445688
2686246
2686273
2801477
2686279
2268578
555387
2686246
2801477
2268578
455364
2801477
2801477
2801477
444860
1557034
2801477
754042
1557033
2510464
2801477
2686246
2801477
2686246
251749
2686246
444860
889953
999883
2686246
2686246
2686246
2268578
754042
2686246
754042
2686246
444860
2686246
1557033
2301529
2686246
687803
2686246
2801477
2686246
1557034
2686246
2686279
2686246
2686246
2801477
889953
2686246
2801477
2686246
238854
2686246
2268578
294631
294631
444860
238854
2686246
1221835
2510464
1883369
2079426
444860
1586715
2801477
555387
444860
446529
2686246
1557034
444860
2686246
238854
1589733
1883369
2686246
444860
2686246
754067
2686246
2686251
2686251
754042
1883369
2686279
446529
1557034
260149
1557034
444860
2686246
2686246
2686246
455364
2686246
2023996
2023996
1586715
754059
2023996
1557033
1557033
294631
2686247
1883369
1557034
1815522
754042
2686246
2686246
294631
2686246
2686246
1526408
1883366
2686246
1264700
444862
444862
1557034
444860
444860
2686246
2801477
2686247
2686246
2023996
2801477
2686246
2686246
754042
908819
754042
754037
1586715
2686251
444860
2686246
2801477
753085
444860
2686246
444860
1557034
999883
444860
2686246
444860
2023996
2027899
444860
294631
2023996
2686246
2027899
2686246
268746
2686246
2686246
999883
2686273
294631
268746
2686246
444860
446529
1229753
1493511
1327983
2686279
444860
294631
2023996
294631
2686246
1589733
2023996
242527
2510464
445688
889953
1913591
2801477
2686279
1883369
2686246
1557034
444860
2686273
455364
2686246
1557034
754042
444860
446529
948071
2023996
2686246
2686246
2686246
455364
455364
2023996
444860
1815521
1589733
1557033
2686246
322019
1589733
753085
2100130
444860
2023996
2686246
2686246
889956
444860
444860
2686246
1283077
2023996
2686246
444860
444860
446529
2801477
444860
754042
1557033
754042
2686246
889953
2686246
455364
268746
1557033
1557034
446529
455364
2686246
445686
2686246
1033977
455364
445686
1557034
948071
2027899
444860
1557034
1586715
1084719
2027899
2027899
2801477
2027899
2686246
2686246
2510464
2023996
1557034
446529
2801477
455364
2801477
2686273
1913591
2027899
2023996
1283077
1542477
2686246
2686246
2510464
268746
687803
444860
1557034
446529
444860
687803
2686246
2801477
2686251
444860
889953
754059
2801477
948071
2510464
1283077
1883369
2801477
2027899
1815521
2023996
2027899
2023996
948870
2510464
2027899
2510464
2772080
2801477
2268578
446529
2268578
2023996
2801477
2686251
1335230
2686246
455364
455364
294631
754041
908819
1273711
948071
948071
1220601
2740801
294631
444860
444860
2801477
2027899
2801477
445686
1586715
2801477
2801477
2023996
2686251
889953
2686246
2801477
2027899
444860
754042
2510464
2027899
2023996
2686251
2023996
536444
2686251
889953
444860
2686246
889953
2801477
1283077
294631
2510464
2268578
2027899
2059380
2268578
1150991
2686246
2510464
1557033
2510464
444860
2801477
2510464
444860
2686246
2023996
2510464
546805
754067
2801477
2510464
1150991
446529
35241
948071
446529
2510464
2023996
754059
1084719
2268578
2801477
444860
948071
1493511
2510464
2801477
444860
2510464
2686246
444860
294631
2023996
2686246
2510464
2686247
2686251
444860
889953
2686246
445688
2686246
2801477
2801477
1557034
948071
1557034
1557034
2801477
455364
754042
322019
2686251
2027899
2740802
444860
2510464
2801477
444860
1340810
889953
2510464
455364
2686246
1536592
1392231
2743781
268746
2743781
2686266
2023996
1557034
1557034
2801477
2686246
754042
2801477
444860
754042
444860
999883
2686273
2027899
230158
2801477
2801477
438482
2027899
2545435
230158
1557034
444860
2027899
2686246
590739
2023996
1340810
444860
1883369
948870
2545435
1327983
2686251
1542477
1557034
754042
754042
2801477
455364
1283077
444860
1883369
455364
2027899
2686251
2023996
251749
455364
2801477
1278402
294631
948071
948071
2686246
2801477
1493511
2686251
2268578
1536592
2801477
444860
2686247
2023996
2027899
444860
2686251
1557034
2099637
1883366
1557033
756275
948071
2510464
294631
1335230
2801477
754042
889953
910473
889951
2743781
2023996
2678601
2686279
2801477
2686251
754042
2099637
754042
2686246
238854
2801477
268746
2801477
1557034
1557034
446529
2801477
1137745
1586715
444860
2268578
2801477
2801477
2023996
2801477
444860
2070181
948870
1392231
2743781
2686273
2268578
2268578
2268578
2686251
2023996
1536592
268746
2686251
444860
455364
2686251
455364
455364
948071
444860
2686246
889953
2023996
2801477
1883375
444860
2686273
2801477
754059
444860
2686246
908819
1557034
908819
1557034
2070181
754059
444860
2023996
1332145
221915
294631
444860
294631
2686251
446529
1586715
1278479
1278479
446529
2686246
455364
2743801
754042
1335230
2686246
889953
444860
2801477
754042
1283077
251749
2801477
251749
2686246
1883369
2801477
2686279
910473
760530
2686246
2759730
1815521
445692
948071
1821565
136084
2099637
2686246
294631
444860
754041
754042
1283077
2686247
2686251
2686251
908819
546183
2070181
1195073
2027899
2099637
2023996
1815521
2801477
2801477
2686251
444860
756275
444860
455364
2686246
760530
251749
2801477
2801477
1229753
2686251
754042
1197951
444860
2686246
889953
251749
2268578
2686246
2686273
2686246
2686273
444860
2282904
2686279
2023996
754042
754042
2656541
444860
1883369
2027899
2510464
2686246
908819
2686246
2801477
2801477
754042
455364
1586714
1392231
1557034
1557034
908819
1557034
2027899
294631
2801477
1815521
908819
2027899
2686251
880162
1493511
2801477
909297
908819
2686251
908819
2510464
2759724
2301529
687803
1557034
2801477
2801477
444860
2099637
444860
687803
889953
444860
455364
2686251
908819
687803
455364
2686246
687803
1392231
444860
754042
444860
1084719
2510464
446529
2099637
2801477
2027899
444860
444860
2772080
2686279
444860
1557034
1542477
2686246
2686246
2027899
889953
2283025
2023996
455364
2801477
754042
1883369
1557034
268746
455364
2268578
2801477
908819
2510464
444860
1335230
546805
889953
1557034
2099637
238854
445686
590739
2491321
1335230
2686251
2099637
444860
2686246
948071
2801477
2686246
1332145
1557034
2686246
251749
2801477
2686251
908819
754042
1084719
908819
754037
2282904
908819
455364
908819
908819
2801477
446529
753085
1150991
908819
889953
908819
294631
455364
444860
444860
2801477
251749
455364
908819
573174
2801477
573174
1283079
573174
573174
230158
251749
268746
1883366
889953
230158
948870
908819
444860
230158
445686
754042
1557034
1557034
2801477
2801477
908819
1557034
2027899
908819
754042
251749
2686279
754042
455364
2686246
948071
1536592
2510464
1335230
2686251
1883368
444860
444860
268746
908819
908819
1033977
2743781
2686251
536466
948071
1406780
948071
1969841
889951
948071
1557033
2801477
251749
1150991
2801477
444878
1880590
2686251
2099637
948870
1557034
948870
2801477
444860
948071
238854
948071
948071
754042
889951
2801477
2686246
2686251
2686251
444860
2023996
2268578
2686246
2686246
455364
889953
455364
908819
1335230
444860
2686246
2027899
2027899
2686246
2027899
2023996
889953
1493511
948071
2027899
444860
948071
2686246
1392231
1026955
2686246
948071
455364
2027899
2027899
910473
948071
2686246
1084719
455364
2023996
444860
908819
908819
2301529
294631
754042
2023996
1392231
444860
948071
2759725
2268578
2510464
1838061
1150991
2023996
1864623
322019
2686251
754042
444860
2686273
754042
445686
1150991
1335230
2023996
2686246
444860
2686279
1493511
908819
2767576
754042
455364
1335230
536444
1527771
1084719
889953
2743801
908819
1913591
2686246
908819
444860
1493511
2023996
889953
2268578
1542477
2686251
754039
754041
749413
1524910
2686251
2686251
2686246
2801477
446529
1557033
1197951
1557034
908819
294631
35241
756275
1557033
2023996
2686246
2686246
268746
2686251
1557033
2686251
2686251
1033977
294631
2686246
2686246
2686246
1084719
445683
445696
889953
1493510
2686251
1493511
910473
1150991
2686251
2099637
2686246
908819
908819
444860
238854
251749
2686246
446529
2686246
294631
1168478
2510464
294631
1969841
2686246
2484217
444860
2510464
455364
1838074
2686251
1327981
1557034
294631
2686246
294631
908819
1557034
2743801
2686246
908819
2772080
268746
2686246
294631
2099637
2801477
307898
908819
908819
908819
1033977
1325731
1557033
908819
1332145
948071
2510464
1392231
455364
455364
948071
1332145
2686246
1542477
2268578
444860
2686245
294631
1325731
948870
294631
1542477
2686245
445692
753085
2562175
2686246
1883371
1335230
754037
2562175
889956
238854
2801477
294631
268746
2801477
2686246
251749
2740801
2801477
2740801
445686
2801477
2801477
2740801
2801477
2740801
2268578
1084719
754042
1084719
1150991
2041344
1335230
908819
2686246
908819
1283078
908819
754042
1195085
1283076
2315608
1283076
2545435
2027899
251749
2545435
948071
2510464
2545435
1557034
444860
1392231
693272
444860
268746
2315608
2545435
445684
2686246
2545435
2545435
2545435
455364
2686246
1838061
2023996
754067
294631
1542477
889953
2801477
1168478
754037
908819
1332145
446529
1332145
1340810
1283077
2023996
2686246
2801477
1335230
2483604
754042
546805
251749
1392231
444860
2023996
908819
2686246
2686246
908819
455364
908819
2268578
445686
908819
754042
444860
2510464
455364
446529
1821558
1229753
1557034
1084719
2041493
754059
948870
2070181
1883370
889951
2686246
590739
1084719
948071
2801477
455364
1150991
1883366
444860
1586715
754059
2041493
169683
294631
754042
889951
1557034
2268578
446529
2545435
2491321
2801477
2801477
251749
251749
889951
2686246
2801477
268746
889951
1168478
1557034
908819
2801477
2801477
2743801
1557033
2801477
889951
687803
1168478
948870
2801477
1392231
251749
2301714
1392231
1557034
1026955
889951
455364
2686246
251749
444860
2023996
444860
455364
908819
322019
2315608
2315608
2100130
2041344
205869
2686246
2801477
754042
2686246
754042
908819
908819
1392231
753085
294631
2023996
251749
322019
754042
1883368
251749
1586715
908819
908819
2686246
1283077
2027899
889953
754042
2801477
1084719
1197951
44088
268746
1335230
756275
1542477
1335230
2686246
754042
754037
754059
889953
2315608
2268578
889953
1335230
2801477
2315608
455364
444860
909297
948071
1033977
687803
2801477
1392231
322019
908819
2590946
1335230
908819
2010329
754059
1197951
1555202
2767576
322019
2686246
2686246
908819
908819
754042
1838074
555387
2686279
889951
1557034
1557034
889953
169683
2023996
2686246
754042
908819
1586714
496874
444860
2686246
2686246
1335230
1133293
244310
1335230
908819
2023996
889951
268746
244310
322019
1392231
2801477
1493511
754067
2801477
2686246
444860
2282904
322019
2743801
322019
2070181
251749
2268578
2743781
1168478
2743801
948071
1557033
251749
279280
238854
1557033
2491321
753085
1273711
948071
908819
1150991
1557033
1493511
754059
2801477
251749
754042
948071
908819
169683
2301529
1335230
169683
1838074
1335230
1283077
251749
169683
754067
446529
1335230
1084719
169683
2801477
1838074
169683
169683
169683
908819
1335230
1883373
169683
908819
908819
169683
754042
169683
2562175
2686246
169683
169683
169683
1586715
889951
1168478
1897437
445686
948071
2070181
169683
35241
2545435
948071
908819
1589733
2801477
1917232
2590946
2268578
2315608
1150991
2041344
2268578
754067
2301529
590739
445683
687803
2268578
455364
909297
908819
1392231
1392231
1335230
2686246
455364
1883369
2801477
1392231
693272
753085
169683
1392231
2741073
2801477
1052673
2704031
455364
2740802
268746
455364
2801477
754042
444860
2801477
1527524
2801477
1392231
2801477
908819
455364
2041344
948071
908819
2510464
908819
1283077
2026080
1335230
908819
2026080
2686246
2686246
2268578
2268578
2026080
294631
754042
908819
2686246
1557033
1283076
936152
2510464
10678
10689
251749
2801477
908819
444860
1325731
2686246
2686251
1838074
455364
2743801
908819
908819
908819
908819
1392231
2099637
2099637
2099637
908819
1033977
504346
2743801
1197951
908819
753084
1137745
948870
444860
268746
2801477
444860
1557034
590739
908819
2801477
455364
2026080
590739
1917232
1917232
910473
238854
1527771
948870
1335230
2510464
889951
908819
205877
2686246
1917232
908819
1557035
2315608
2743801
2801477
908819
2100130
2686246
2282904
2801477
1493508
889951
948071
908819
2686273
446529
1392231
1567005
238854
446529
444860
2250335
2545435
693272
444860
753085
2517973
2743801
1557035
754059
2545435
2801477
2801477
756275
754042
2250335
2762283
908819
749413
1127518
1392231
2041344
2070181
756275
1589733
1239565
268746
2593333
754042
1586714
2510464
238854
889953
1127518
251749
444860
2743801
455364
948870
1392231
910474
1917232
2801477
181082
1392231
1340810
444860
756275
1239565
754059
2801477
2590946
2099637
2801477
2801477
2510464
455364
455364
908819
1883368
754042
1084719
908819
2041493
2041493
242527
2743801
2686251
2023996
889951
444860
444860
169683
1815521
1838061
444860
455364
1883368
908819
2801477
268746
2801477
2488789
35241
1474867
1493508
1283077
754067
756275
889953
251749
294631
948071
948071
444860
2686246
948071
948071
455364
1325953
2686246
444860
2801477
948071
444860
1283077
948071
455364
754042
279383
2801477
268746
1557033
268746
590739
1883373
294631
444860
1034139
446529
382262
2041344
1586715
1392231
2015853
1557033
948071
2024295
1150991
2743801
455364
754042
1168479
1283076
63118
754059
889951
2801477
1586715
754059
169683
2743801
1392231
1335230
2488789
2201442
2491321
2686246
444860
2686246
455364
205879
1458697
1557033
1197951
251749
2508195
2743801
1269028
445688
2510464
268746
455364
2041344
616674
444860
1586715
1557034
573173
1557034
908819
908819
2740801
2686246
1917232
889953
908819
908819
1357423
754042
908819
1493513
2686246
1527771
1084719
1814283
908819
1335230
444860
268746
754037
536466
444860
2510464
1392231
908819
1168478
444860
2023996
1883369
889951
1821538
1392231
446529
2801477
455364
251749
2801477
445683
1084719
242527
1392231
2510464
2743829
2801477
2070181
445696
2743829
2041344
445688
1127518
455364
889953
2023996
455364
2743829
1168478
2686246
268746
1127518
908819
1239565
238854
205879
1392231
948071
1527771
2027899
268746
1332145
1557033
889951
1838074
889953
1332145
2041344
2545435
908819
523909
2024284
294631
908819
444860
251749
445686
1557033
908819
1332145
756276
1332145
455364
2491321
687803
2483719
1873777
948071
889953
1542477
2801477
268746
1335230
1283077
2686246
756275
2801477
753084
754042
1880590
2743801
2268578
948071
444860
444860
1883369
1084719
2743801
455364
754042
753084
1557034
2099637
1033977
948071
2510464
1392231
1084719
455364
1493511
2023996
1792032
754041
754042
908819
1883369
10678
754042
1133292
908819
268746
754042
1527771
754042
205869
948071
2041344
1137745
294631
1084719
1527771
1357423
455364
754042
455364
322019
2686246
754042
2741076
205869
908819
455364
455364
2601693
1586715
909297
1335230
1392231
754067
268746
251749
1586715
908819
268746
1033977
2686245
1557034
1493511
1084719
2801477
756276
455364
444860
2510464
1026955
294631
1327971
322019
2686246
1084719
1079999
2510464
2029657
2508195
2510464
590739
590739
444860
444860
908819
1542477
444860
2741074
2686246
2686246
590739
753084
908819
455364
908819
753084
2686246
2801477
2591403
10678
889953
1335230
294631
1335230
268747
1335230
444860
322019
169683
2801477
169683
754059
2743801
431893
2759730
169683
753085
2740802
1308899
169683
2686246
2547425
756276
2015886
2545435
2023996
1527771
169683
2801477
1536592
2686245
444860
908819
169683
169683
169683
1557033
2740801
322019
169683
2686247
444860
2099637
169683
169683
322019
2686251
546805
169683
169683
1327971
169683
2099637
1084719
2741073
1335230
1493513
687803
754042
444860
444860
444860
251749
754042
444860
948071
908819
948071
948071
2590946
1084719
444860
455364
251749
268746
2743801
948071
1084719
693272
693272
1133293
2023996
2484217
753085
908819
1557033
1557033
455364
2023996
2023996
754037
754042
2070181
2801477
2023996
1335230
2801477
2023996
1880590
444860
1168479
2686246
909297
455364
455364
455364
1573458
445686
948870
754042
2686251
205869
753085
1335230
1168478
1493511
1586714
1493511
908819
1269028
948870
444860
908819
908819
948870
268746
10678
205869
444860
754042
2801477
908819
2686246
251749
1557033
2023996
1084719
754059
1536592
2315608
948071
2027899
2510464
2041344
908819
2483719
2510464
2510464
1493511
908819
2023996
1033977
2801477
279006
1137745
1589733
251749
2801477
1084719
1335230
1392231
169683
2301529
1084719
1557033
2041493
2023996
754059
444860
1541819
169683
754042
1573458
2716351
169683
2545435
2483719
908819
889951
948071
2483719
1335230
1168479
1445858
2686266
268746
2510464
504346
1542477
445688
2023996
753084
948870
2491321
889951
444860
244310
1445858
444860
268746
2023996
2686266
2545435
2545435
251749
1392231
948071
2510464
251749
908819
908819
948071
2491321
1150991
908819
2723758
2510464
1197951
981335
2741076
2315608
1814287
1197951
1335230
948071
1557033
754042
444860
444860
1392231
573173
1392231
1051675
948071
445688
205869
948071
754059
455364
445688
446529
2686246
2743781
2686246
294631
2801477
455364
1084719
756275
2023996
445688
2686251
1792253
251749
251749
2041344
948071
743813
205869
1536592
2801477
2801477
2801477
1168478
754067
1557033
2026080
1536592
194699
2510464
268746
1590550
446529
1557033
754042
754059
205869
1335230
2041344
2740802
2801477
1557033
1168478
2023996
2041493
2801477
1335230
1168478
2041344
268746
754042
754067
1026955
1557034
1573458
455364
948071
948071
1814287
754067
1880590
205879
2070181
251749
2801477
2686247
1821566
948071
279280
2510464
908819
455364
2510464
444860
2491321
908819
1590550
908819
455364
1283076
455364
889951
754059
455364
536466
754059
251749
908819
1296662
948071
908819
2510464
2041344
1958956
444860
35241
1195085
2801477
908819
2686279
1586713
444860
455364
2686246
2801477
2801477
908819
2801477
251749
1573458
908819
2686279
2041493
546805
2010329
1335230
242527
948071
2510464
455364
1590550
1084719
754042
754037
2510464
754041
194699
2510464
880159
1586715
446529
1557034
445686
2686246
2041344
908819
2491321
754042
2510464
1557033
2315608
754037
446529
1590550
1557034
2740801
2023996
1557034
2801477
948071
455364
2801477
948071
948071
1392231
590739
2686266
2801477
2686266
2723758
2027899
2023996
2686266
445686
2743801
2686246
948071
444878
455364
251749
2772511
1239565
1168479
2510464
2801477
2491321
1586713
948071
251749
2801477
1493511
2015853
1536592
294631
948071
2023996
2301529
948071
908819
2029657
2801477
2268578
2743781
1084719
1084719
1084719
2491321
756275
2023996
2510464
1557034
455364
444860
1557034
1325953
1527771
754042
1168478
2686246
1486424
251749
2686266
2656605
1572704
1542477
1557034
445700
2686266
1168478
2052742
2510464
455364
1557033
2590946
2510464
1557033
2740801
889953
230158
2801477
1917232
1335230
1392231
2053723
2801477
251749
230158
1573458
1493511
1137745
1283076
590739
205877
322019
230158
948071
1557033
948870
1327971
756276
1500713
2772511
2740801
889953
1557033
238854
455364
1269028
446529
889951
205879
948071
230158
2759725
230158
444860
230158
948071
230158
2041344
1283076
2107707
1406785
2491321
1327758
444860
1917232
1572704
1536592
444860
2510464
2301538
268746
1536592
1557033
889951
1168478
1392231
230158
1590550
1168478
251749
238854
889956
2686246
2023996
2023996
10689
2023996
2557579
251749
908819
205869
10689
238854
268746
2268578
230158
948071
445686
2023996
2686245
1557033
754037
444860
444860
455364
2740802
1084719
238854
181082
2023996
251749
455364
908819
2686246
455364
754042
754042
2686246
205879
194699
754042
908819
2510464
2491321
2491321
444860
889953
1392231
2041347
908819
455364
889953
455364
445688
756275
2070181
2686251
754042
691964
2801477
455364
445688
455364
251749
2801477
1327981
455364
2686251
2686246
1586715
1493512
2741073
1127518
444860
2686246
2801477
504346
2801477
1917232
244310
335797
455364
2801477
251749
2686266
322019
1917232
1283077
948071
444860
2686266
2686266
754042
2510464
1084719
908819
754067
2686266
2686246
1168479
1084719
2686266
948071
2686266
251749
2759389
2686266
205869
1883369
2686251
2686246
948870
2686246
948071
1557033
754059
948071
2686246
1883369
455364
1586713
2026080
948071
2100130
1814283
1340810
251749
2686251
2801477
2801477
1220714
2801477
242527
455364
2510464
754042
2801477
251749
948870
1913591
1557033
1340810
1127518
2686266
455364
2023996
909297
169683
2686251
754042
455364
194699
948071
10678
455364
1536592
251749
251749
268746
2759730
753084
1269028
1542477
2510464
294631
169683
1572704
322019
444860
455364
2510464
169683
238854
2041344
2740802
573174
1557034
2801477
2041344
2023996
2070181
1084719
590739
322019
693272
10506
1162304
693272
205879
693272
908819
889953
455364
573174
1536592
948071
455364
455364
687803
212035
455364
1283077
948870
1542477
455364
444860
2023996
2801477
2565696
268746
1084719
1150991
948870
445692
2686245
756275
2301529
2070181
251749
2249773
1392231
2716351
399781
294631
1557034
2686247
2041344
1572704
455364
754042
445686
445686
861045
754042
205879
268746
2801477
1168478
1335230
445686
455364
444862
2741073
444862
244310
1586713
2070026
194699
1283077
455364
322019
2801477
749413
981335
244310
1168478
1283076
455364
1586714
2743781
455364
1137745
445688
446529
455364
279280
181082
444862
444860
2686246
1557033
948071
251749
455364
455364
2686251
444862
2801477
446529
446529
1917232
948071
2502409
948071
455364
1325953
948071
2686246
1325953
754042
2315608
948071
1969841
1536592
1590550
2590946
268747
445688
1573458
444860
1557034
1084719
1536592
1220601
948071
455364
1392231
2510464
322019
1392231
1883368
194699
1084719
2315703
2041344
294631
948071
2041344
948870
2014434
2686246
909297
205875
2201421
1917232
756275
889953
2801477
455364
10506
1880590
1542477
2510464
2686246
1883371
2686251
754042
2743829
2743829
753084
169683
2545435
2743829
169683
2743829
251749
2601643
455364
754042
2743829
2686245
445688
2759730
1883369
1327762
889953
2686251
908819
1150991
251749
446529
2041493
2590946
1883371
2686251
2743829
169683
169683
2041493
2743829
2301529
335797
2743829
2743829
2268578
1493511
753084
445688
1283077
908819
754042
2743829
2510464
908819
756282
1557033
445686
169683
2743829
2743829
908819
455364
2041493
2301529
2686245
948870
205879
2100130
455364
2686266
1406785
2686246
2801477
889953
2023996
948071
948071
948071
1556290
455364
251749
948071
948071
251749
444860
2041493
2026080
1542477
1168478
446529
10689
1137745
455364
455364
1168478
754042
444860
2079426
909297
2301529
455364
948071
1897641
2041344
889953
753084
1029988
2041344
1084719
1493511
2491321
1913591
948071
1536592
268746
2801477
2079134
1392231
1917232
1327758
889953
194699
1084719
1239565
2686266
2023996
908819
251749
1557033
1590550
2743826
2510464
908819
1557034
2686246
2686266
1557034
2530140
455364
194699
753084
2301529
1325731
1084719
2743781
2801477
2743781
2686251
1168478
2023996
1573458
2014434
753084
1557035
2510464
1557035
1493511
908819
2491321
1917232
1493511
756275
2743781
446529
2023996
2686246
2743781
1557034
181082
2801477
754042
753084
2743781
1555202
2743781
2024264
455364
693272
1415146
2070026
691965
2108134
2510464
268746
1084719
444860
1586714
908819
2686251
2743829
2743829
2686246
444860
2686246
1880590
2268578
1883371
455364
445688
455364
1168478
2741073
2743781
1084719
2801477
2741073
889953
1332145
696472
455364
2562175
1168479
948870
1586713
2041493
2041493
194699
1557034
1567486
2070181
2801477
2741074
908819
1542477
444860
2041493
1278479
2686245
1815522
1084719
2268578
445686
2801477
1392231
1392231
1792273
2801477
2801477
948870
2801477
1392231
2041207
1141136
251749
948071
1150991
1175654
242527
1815630
1527771
1195085
948071
1536592
455364
446529
335797
590739
2510464
2491321
880162
1211278
1536592
2483719
1573458
268746
444860
238854
1557035
2026080
242527
2041493
1283076
1392231
444860
2024264
2686266
251749
1283076
1880590
444860
2801477
444860
908819
1335230
753084
2491321
455364
753084
756275
673376
2801477
2510464
2686246
1883369
444860
251749
2801477
754042
948071
2686246
2510464
1335230
889953
1493511
444860
444860
322019
2686251
2510464
2510464
1335230
2686266
238854
2801477
251749
1557033
1084719
1887641
756275
1168478
444860
981335
1883372
1195073
2740801
2740801
2686245
687803
444860
2812854
1962671
115987
320837
2740801
2740801
2740801
1084719
1283076
1335230
1357714
251749
455364
1557035
2601643
1542477
908819
2010329
1493508
1392231
2686246
251749
2740801
1557033
2801477
1168479
2801477
2686266
455364
2801477
251749
2740801
2686245
1084719
1567014
1084719
889951
446529
399781
1084719
446529
446529
948071
1076255
455364
1557033
1084719
754048
948071
2686246
1335230
2686251
2023996
205879
446529
2041344
446529
1883369
10704
696472
2491321
889951
1572712
238854
2686266
1168478
908819
2510464
2801477
444860
2023996
2510464
948071
455364
2801477
754042
2024264
1357423
908819
2801477
2041344
2041493
2686242
2801477
444860
2268578
2686246
2268578
2024264
889953
2041493
2801477
2801477
2801477
2010329
909297
1493511
1220717
2801477
1335230
756276
1273711
1168478
1278485
1084719
908819
447909
889953
205869
1392231
2743829
399781
2801477
2268578
251749
2801477
2026080
2801477
2801477
2686246
948071
2099637
1137745
2590946
2026080
2686242
2801477
1557033
455364
2801477
455364
1090134
1392231
2801477
1880590
2562192
251749
909297
948071
2696426
2023992
1474867
2099637
2801477
1090134
2801477
264729
2686266
2801477
2801477
2801477
948071
1036616
642926
2099637
2801477
2801477
908819
2801477
2801477
2801477
444860
251749
909297
2801477
2801477
2301529
2801477
2801477
2801477
2686242
908819
2026080
251749
444876
2023996
754042
2801477
2686242
2801477
753084
268746
908819
2801477
908819
2801477
2301529
2801477
908819
2801477
455364
2591131
212035
2041344
2678601
2759730
445688
754042
2686437
880162
251749
1150991
2801477
2301529
889953
1917232
2686246
455364
446529
2801477
455364
2801477
908819
2041344
910474
1168478
2759730
2801477
2023996
2801477
1084719
889953
908819
1557034
2743781
279383
1542477
1084719
2801477
2686266
251749
1590550
696472
1590550
1493511
2743826
455364
2801477
1536592
251749
2070181
889951
889951
1586715
2801477
2801477
2301529
455364
1493511
756276
1084719
1883371
1586715
2801477
205879
948071
1239565
908819
2743829
2767570
205869
1168478
2743829
2743829
455364
2041344
2510464
2686266
2491321
889951
2801477
1340810
1458670
2510464
908819
2686246
2510464
2590946
2686245
1917232
446529
1283077
2041493
455364
2041347
909297
242527
1493514
1536592
205869
1526550
1084719
2041344
446529
908819
1150991
1084719
1586714
2801477
2510464
1327976
756276
251749
455364
2041493
1283077
1590550
1168478
2041493
2686245
2491321
1296661
753084
1150991
1127518
1150991
2041493
2801477
948071
2743829
2759730
2759730
2041493
205869
2041344
2743829
2565696
2801477
909297
2593360
2686251
2743781
2801477
444860
754042
2801477
1335230
1555202
1283076
455364
948071
1557033
205869
213775
2510464
2545435
1168479
754042
455364
2743829
294631
2743829
889951
455364
2801477
455364
1557034
2801477
1283076
908819
908819
2743829
2545435
1327758
2591205
1883368
1084719
1220601
1590550
320122
1084719
151539
1883372
889956
754041
1084719
1932892
1168479
1187128
1084719
2772078
320122
1029988
1340810
455364
693272
1392231
1220601
2801477
320122
2686246
2801477
2801477
2510464
2740801
2801477
320122
908819
2723773
880159
446529
445686
445688
320122
2801477
251749
2052742
320122
908819
948071
2041493
755272
2743829
2686246
169683
2014434
1084719
2743829
2041493
2743829
2743829
2743829
2743829
2743829
1392231
1541823
2743829
2743829
2743829
2743829
2743829
2743829
2743829
455364
2801477
908819
2743829
1883368
2743829
335797
2743829
2743829
2716351
2743829
2510464
1036616
2743829
2743829
2801477
2743829
1500757
2743829
2743829
2743829
2743829
2743829
2743829
2743829
2743829
2743829
2743829
1332145
1084719
948071
2743829
2743829
2743829
180504
1883368
2743829
2743829
455364
2743829
2743829
2743829
2743829
1084719
2743829
2743829
2743829
753084
2743829
1883368
2743829
1983572
2743829
2743829
2743829
2743829
2743829
2743829
2041493
754042
2743829
1880590
2686266
2743829
948071
1557034
2743829
2743829
2743829
2743829
2743829
2743829
2743829
2743829
2743829
2743829
251749
1883368
2743829
546805
2743829
2743829
2743829
2743829
446529
2743829
2743829
2743829
1557034
2743829
251749
908819
447909
1557033
445686
754044
2024264
455364
869724
2041493
908819
2041344
2593360
455364
1029988
2743829
754042
2023996
1084719
2041493
251749
2686251
455364
455364
908819
1206110
908819
2793705
2510464
455364
908819
1493511
2801477
1278402
756275
268746
169683
2041344
1572704
1033977
1278485
1880590
2070181
1917232
889953
546805
590739
2491321
2079426
2100130
1567012
2041493
908819
910474
753084
1557033
230158
455364
1283079
1084719
1913591
455364
1493511
251749
2716351
446529
1880590
908819
2041493
2743781
753085
908819
2041344
444860
1917232
455364
444860
431894
2801477
2801477
658401
2510464
551790
1883369
2801477
1269028
1392231
889953
444860
1542477
447909
2686266
455364
2686251
2301529
251749
251749
2743781
244310
889954
1168479
2801477
2743829
754042
1880590
2686266
455364
205879
2759393
2301529
2743829
1283077
908819
948071
1555202
754042
2268578
948071
1026955
2510464
1084719
1283077
1883371
908819
1815968
2301529
908819
445692
279280
1557035
756275
2491321
2301529
2041344
1168478
2743829
2801477
889953
251749
1923889
10678
1486472
2743829
1557034
948071
446529
2743829
2484217
227720
2686266
1308863
1527771
2686246
72201
546805
1273711
2716351
1084719
2301528
2041344
2053701
546805
2686246
1239565
1168479
2510464
2491321
1051675
1392231
1084719
889954
658401
2023996
1335230
1084719
2812854
251749
2741074
2041493
1273711
2041344
2023996
2041344
2686246
2686251
455364
455364
1917232
28874
251749
445696
546183
2024264
1084719
2483719
2041344
447909
1283077
455364
1536592
1168478
169683
1392231
2743781
2491321
446529
2686246
1980139
2743781
1136535
948071
2510464
1814287
1283077
242527
194699
1084719
1880590
1557033
1557033
2740801
2743781
2491321
2686251
908819
2041344
2723769
2801477
1572743
2301529
1536592
1034099
169683
1493511
268748
2686266
1541819
948071
431893
2048977
909297
1392231
2070026
455364
948071
2740801
455364
2079257
2686242
948071
446529
1917232
2686247
1536592
2545435
2801477
169683
1814287
1486472
1873777
2801477
909297
754042
948071
251749
948071
754042
948071
2041493
2686246
169683
948071
251749
908819
754042
2686245
340435
908819
2510464
2041493
2740801
2743781
2041344
2743781
756277
693272
447909
2743781
1524882
444859
455364
1536592
754042
2510464
756275
754042
1883369
2801477
948071
455364
2041344
948071
756275
2801477
756275
2743829
444860
238854
340435
2743829
1327983
455364
455364
444860
455364
445688
1917232
1493510
869662
455364
455364
1542477
1084719
2041344
2741073
2041344
2070026
1084719
444860
251749
2023996
1542477
2812854
2801477
1792274
251749
1150991
2759730
1880590
908819
2041493
1557033
322019
1880590
2488789
455364
1168478
251749
1557035
2772511
929835
1084719
251749
455364
251749
2801477
2743781
2041493
1325953
880159
756275
2686266
1084719
2079426
10742
1084719
264729
2070026
2696426
251749
1392231
754041
2740802
1084719
2301529
2686266
242527
2070026
2716351
2510464
2041344
753085
2716351
455364
444860
754042
446529
948071
445696
1542477
2099637
2099637
908819
2743781
2801477
2686251
2686251
948071
2010329
1283077
1557035
1586713
268746
1051675
251749
2491321
948071
1805457
1557033
984175
1542477
984175
1557033
2686251
2510464
444860
2545435
1917232
2801477
696472
2686245
2590946
754042
2483719
683735
1917232
1327990
2772511
2115967
754042
1557033
1897532
2545435
1557033
1880590
1557033
1557033
2026102
322019
2801477
2801477
2743829
1868826
2801477
1269028
1589751
2781364
446529
455364
2801477
445692
114777
936152
455364
2686245
1084719
1917232
1567014
455364
1917232
1880590
1557033
2801477
1557033
238854
936152
2041493
1392231
2743829
2801477
565140
455364
1557033
2743829
2801477
1557033
445692
2801477
2491321
1283077
455364
2801477
1917232
2041493
1133292
2743829
10679
948071
2686266
1493511
455364
2041344
1815968
2686245
455364
642926
2565501
948071
1327939
2686266
2686247
2743801
251749
1220601
1357423
889954
1536592
2027899
2070026
1273711
1204517
948870
1542477
2010329
1883369
2070026
1917232
446529
446529
444860
2716351
1279082
446529
889953
2590946
438482
238854
1084719
1084719
2801477
546805
251749
1542477
948870
908819
251749
1211640
2070181
2015860
1283076
1585840
1557033
2716351
908819
1586713
455364
322019
268746
331627
205869
889951
909297
2041493
1392231
2041493
908819
753084
2801477
455364
1897532
753084
2716352
2041344
948071
908819
1084719
2041344
242527
268746
1542477
1493509
754042
658401
1033977
181082
455364
2801477
658401
2510464
444860
1357715
2301528
2041344
753084
2741073
948071
2801477
2301529
2510464
2801477
2656541
948870
1917232
2041493
194699
1542477
1335230
908819
546805
908819
1917232
1168478
908819
438482
2590946
2591403
2759730
2041207
1211278
382685
335797
2510464
2686246
2510464
880162
335797
1335230
1137745
753084
2510464
590739
1814287
455364
754042
1357423
754042
238854
447909
2026080
1880590
2686242
2041344
889953
2743829
573174
948071
2801477
753084
242527
573174
1220601
1917232
573174
909297
437444
1084719
2510464
590739
573174
444875
573174
2801477
2070181
1357423
2041493
2686251
573174
573174
2099637
1881104
573174
370623
573174
573174
573174
573174
1557033
573174
573174
573174
264729
2107707
1557033
573174
573174
2801477
573174
1536592
1917232
2686266
2041493
2743829
948870
573174
2041493
2041493
437444
573174
754041
2502409
447909
10704
573174
455364
908819
573174
230158
2099637
1983536
2099637
573174
455364
573174
455364
1837862
1141141
2716351
1883368
1917232
10689
1235689
753084
2686251
294631
2801477
1392231
2741073
2801477
908819
889951
10273
2023996
880159
331627
948071
2079426
948071
2041493
2041493
2491321
2801477
2743829
1557033
753084
2801477
2801477
754042
1391659
2590946
2801477
2716351
1527524
1542477
2759730
2590946
2801477
2686251
754059
2686246
320837
2801477
2053653
2801477
444860
948870
2023996
2686242
2686251
1880590
2801477
2801477
2041493
2801477
2593333
1527524
238854
2801477
1392231
889951
753084
948870
2801477
2801477
2686251
335797
753084
1556290
1542477
2801477
2801477
2801477
49964
1269028
756275
1392231
2801477
909297
1392231
2801477
2801477
753084
1589733
1273711
889953
447909
2686266
1557033
1168479
1590550
2686266
2716351
2743829
242527
268746
754042
565140
2510464
335797
1557033
2023994
981335
936152
1392231
1557034
251749
1969841
2053653
1084719
205879
909297
1969841
251749
565140
869662
2686266
2686266
194699
1493511
1150991
2023994
1880590
251749
1168479
2686246
749413
1168479
455364
2301529
908819
2301529
1113547
889951
756276
2686245
701257
754042
2041493
251749
2041344
2026080
1168478
2041344
2510464
322019
889954
2801477
1586714
2041344
322019
2743801
1084719
2686273
2743826
948071
251749
445696
754042
1357714
455364
1880590
1917232
2801477
251749
1917232
2686246
1084719
889953
2491321
455364
455364
2014434
2023996
2510464
936152
2510464
1917232
753084
1283076
696472
1283076
2759732
753084
1084719
1917232
446529
753085
444875
754042
1084719
2023996
2301529
2686251
546183
754042
2041493
2686247
1536592
754042
455364
889953
1542477
1917232
1880590
455364
2510464
1917232
2801477
2801477
2686247
2023996
2041493
2301529
1586715
2801477
2510464
1536592
2510464
2023996
1327934
1557033
455364
754067
1969841
455364
251749
756275
1536592
909297
909297
1327037
754042
2041493
455364
1168479
754042
948071
2801477
948071
908819
447909
447909
1493511
444860
2027899
1883369
447909
455364
1542477
455364
1536592
2686266
1327934
2023996
1557034
908819
1969841
1327976
431893
1897532
2268578
2026080
1557035
753084
1325731
2041493
665884
2801477
1917232
2015833
1127518
1557035
2686247
1814287
444860
455364
2743781
2590946
1168478
889951
1557035
1327980
2716351
1557035
2601643
2601643
2484217
665884
2801477
1168479
2488654
1168478
1557035
2743826
2743781
908819
1557034
2023996
2041207
268746
1536592
2024264
908819
2801477
1329402
268746
1792032
2801477
2801477
1084719
1917232
2041493
455364
2686245
1332145
455364
1557035
1557035
1557035
444860
1557034
1557035
1557035
1917232
1557035
948870
2041493
1557035
1557035
1557035
2041493
1557034
1557035
1557034
665884
2268578
2027899
2801477
889951
2593333
251749
1084719
445683
445683
2801477
754042
455364
754042
756275
1873777
2590946
446529
755272
2023996
1084719
2510464
1873777
1542477
1084719
2268578
1084719
1392231
2759730
2801477
455364
294631
1084719
238854
444860
2743829
2759730
1335230
268746
755272
754041
455364
455364
445683
2686246
446529
268746
2801477
251749
2301621
1586713
2510464
2801477
335797
2812854
2041344
889953
1527771
2743829
2301621
2801477
2510464
1283076
1327993
455364
1590550
1557034
242527
1084719
2686266
908819
1220601
251749
2686247
2801477
2812854
2545435
2041493
238854
1557033
446529
2801477
1308863
2743781
2743781
1883373
455364
2686245
1542477
2686242
2686242
2743781
2510464
2743781
1557034
1335230
1168479
2686242
2686246
455364
2743781
2801477
1335230
2686266
2743781
251749
1880590
1527771
2741072
1168479
205879
455364
2686245
2653725
455364
1792032
2510464
251749
2812854
753085
238854
444860
754067
546805
10506
2686246
2100130
908819
889956
1536592
908819
1168479
444860
753084
455364
455364
889953
2743781
2301529
1283077
469660
1328030
1206110
1283077
335797
455364
455364
2590946
1542477
445686
2801477
2743801
1880590
2301529
1150991
399781
1965363
1815522
1585840
1917232
2762400
2023996
2801477
2743781
1168478
251749
446529
2686246
2743781
2107707
754048
1536592
444860
2041344
444878
446529
1029988
2107707
2801477
2686251
1084719
1136535
889956
1883369
251749
1327758
455364
2041344
1536592
1883368
2107707
1084719
2301529
754042
268746
1880590
2023996
2107707
1542477
251749
2301529
444860
948870
455364
2510464
264729
445696
1880590
2772074
2743781
754041
2801477
2801477
2070181
948071
1332145
696472
1084719
2801477
948870
2716351
1880590
1269028
2686251
279280
446529
1536592
1084719
2488571
756275
2716351
889953
2801477
2010329
1557034
1486472
948071
447909
2565696
908819
908819
1220601
268746
279303
251749
1917232
1084719
1590550
2801477
2686266
1883369
2268578
2801477
322019
754042
755272
455364
2041493
446529
2743829
754042
1029988
2801477
1557033
1567486
2716351
1868826
2041344
2510464
2686266
2015873
2801477
2740801
2041344
212035
1084719
2686247
1327982
1150991
2070181
455364
1406785
2070181
2491321
2015873
754041
2743826
2283265
455364
455364
1500757
754042
445688
446529
1557035
754042
1168479
756275
1527771
1493512
1283077
2590946
1327982
2250336
1391181
455364
908819
268746
1493511
1406785
908819
445686
2041344
909297
1557033
1084719
1327934
2041344
1557033
1084719
447909
2491321
2801477
1917232
2041344
1557033
2743826
2041344
455364
2686251
1542477
445686
2041344
455364
1557033
2801477
908819
2686246
455364
1557033
756276
1557033
2801477
2801477
455364
1880590
1557035
2590946
251749
251749
1567014
10678
2716351
320837
2686266
2491321
1913591
335797
2656572
1220601
2686266
2686266
455364
948071
205879
399781
2041344
1880590
2686245
1137745
1814287
1557035
1526550
948870
2070181
1136535
753084
1814284
1821552
754059
1542477
1586715
2099637
948870
1868826
264729
696472
546805
2070181
2743781
2743826
1567014
880159
238854
1814287
1814287
2029657
909297
2041493
2029657
1079998
756275
1136535
261726
268746
2686246
1557035
1141136
2686247
2025360
446529
268746
445700
2301621
2686246
399781
1897437
1814287
2041344
1814287
753084
1557033
1567014
1917232
455364
242527
1335230
948071
1913114
2491321
444860
455364
948071
663557
1084719
2686245
251749
1283077
444860
754037
2041344
2716351
1036616
2759730
2716351
2510464
455364
2510464
1590550
268746
1335230
1084719
1542477
1084719
1500757
446529
2801477
2686266
2023996
754042
2801477
754042
445688
2801477
1150991
1168479
348058
754042
445688
1327990
251749
1335230
2023996
2801477
2743781
948071
1168479
2023996
1969841
2686266
2686245
555387
1137745
1392231
2545435
1969841
948071
2801477
693272
205879
1557034
2041344
2047871
321023
2014434
2041344
2587814
2743781
1814287
2079426
1557035
72201
2686246
1965368
455364
2502409
455364
1220601
2686247
2686245
444859
2686246
908819
169683
1917232
207656
2743829
948071
1493511
753084
2801477
948071
1814287
455364
754042
169683
1557034
1557033
1327037
251749
10742
642926
1814287
2759730
261726
1821560
1557033
455364
2743826
114416
756275
1868826
889953
2023996
948071
869724
2041493
880159
2510464
2801477
2510464
948071
455364
1542477
889338
194699
1084719
2079282
1557033
2801477
10678
948071
1821560
754067
1557035
2743826
948071
1880590
754042
1141137
455364
2801477
2041493
2494563
2743826
1880590
455364
2743781
889951
889951
1880590
2041344
444860
1283078
2591403
1815968
455364
2729541
2041344
2301528
1814287
1536592
936152
1325731
2741073
1978922
948071
2716351
2268578
2686258
2686251
2743781
1168479
1328030
2759730
1796997
2767576
880161
244310
948071
2041493
1327985
1084719
2591403
909297
2268578
2041493
445688
1541883
909297
1897532
1560342
2100130
2801477
2743781
756275
1392231
1283076
1557035
2743781
444860
619591
908819
754042
2801477
455364
2041493
279280
2696379
2023996
1325731
2801477
2510464
455364
1168479
1557033
268746
2686246
329254
1391659
2041493
754042
948870
2301528
10678
1590550
1168479
2716351
2023996
2801477
1527519
2053702
2686266
1573458
205869
2686266
2686251
2716351
908819
2041493
251749
756276
380598
1168479
2041493
2590946
1141136
754042
2716351
335797
2741076
1392231
754042
2759724
2743781
2801477
2041493
1493511
455364
1868826
335797
322019
1557034
2801477
1168479
1557034
2419946
2686266
929832
2686266
2686242
2023996
2686242
2041344
1838078
2743826
1540098
2041212
1815521
1590550
1220601
455364
1814287
2686242
2070026
445684
908819
251749
908819
2593360
2419946
2593360
1557033
1084719
880159
2041212
413066
238854
1483485
1805459
455364
1084719
1325731
889951
1168479
2041493
948071
455364
1814287
1557033
455364
1283079
455364
642926
908819
2743781
2743826
754042
2041344
413066
2023996
2686251
2686242
2070181
455364
2743781
1052673
1527771
251749
1472912
1536592
1585840
1557034
908819
1335230
2023996
1150991
2107707
754042
2070026
1269028
2510464
251749
2716351
1493511
755272
2041493
1220601
1814287
754042
2593360
431893
2483719
2010329
151599
2801477
909297
2041344
194699
264729
637730
251749
2041344
445700
2741074
251749
2510464
2041344
1527771
455364
447909
264729
908819
754042
948071
447909
909297
2767576
1136535
2041493
1168478
753084
455364
455364
445683
2716351
2041493
28874
2041344
2686266
1586715
2686273
754064
2041493
169683
321023
1493511
2686251
1814287
948870
10276
1278479
1204517
2801477
908819
1150991
2740801
455364
2686266
908819
2767570
1868826
1557033
936152
2488571
1029988
2510464
1283077
445686
1493511
455364
1934252
1168479
1883368
444860
242527
2023996
2041344
2723758
880162
1572745
1934252
2759724
447909
1141135
251749
1327934
754042
2686251
2801477
1814287
1913591
455364
889953
910474
445686
2070026
753084
2510464
1486472
565140
1814287
2759724
754042
2759732
205869
908819
205877
1542477
1557033
2590946
2041344
1917232
1586715
2743826
1493511
445688
2510464
909297
2772074
1328030
399781
2801477
1283076
251749
2510464
455364
1392231
2510464
2510464
2759715
2014434
2510464
948071
445686
2801477
1325731
908819
2741075
2041493
1557033
1168549
2510464
2743781
2716351
2510464
2510464
1814287
1527519
2041493
756276
322019
2041344
2510464
2070026
2041493
445696
2686266
1327934
1590550
2070026
1880590
251749
444875
908819
2491321
2743781
2801477
2510464
2510464
2801477
1090134
2801477
2053723
2743826
2025360
2686266
2510464
2743781
97195
908819
444860
2510464
447909
908819
756275
279383
2510464
2510464
446529
2801477
2743781
2686242
2686242
1168478
2686242
2041344
1917232
2801477
2686242
1084719
2686242
546183
1557033
889953
114777
2801477
2686242
1458716
2686242
238854
2686242
268746
2686242
1542477
445688
340435
2686242
2686242
2686242
340435
2686242
2686242
2801477
2686242
2686242
2686242
2801477
455364
2743826
2801477
1392231
2801477
2590946
1220601
753084
455364
754064
2801477
431893
2593360
2686242
2686242
2686242
756280
2740801
1168479
2686242
2801477
1814287
753084
2041493
2801477
2801477
754059
1220601
1557033
2743826
753084
2590946
2801477
2041344
2686242
2801477
446529
2801477
2686242
948071
2743826
2743826
1536592
380598
2023996
1557033
322019
2686242
2686242
2686245
2801477
2686247
2743781
445696
1329402
1527524
1792222
1283076
2801477
2041493
1493508
455364
1527524
2716351
1527524
455364
2767576
1283076
251749
1283076
1590550
1084719
1527524
2743801
1283076
455364
889951
2741076
1084719
1168479
1327934
1814287
2070181
2686251
2510464
2686247
2656529
908819
755272
889951
889951
889951
889951
2812854
2048977
889951
1283076
908819
756275
2801477
1527524
1527524
447909
908819
889951
2801477
2010329
936152
445686
1283076
889951
2041344
1556290
1283076
889951
444860
1283076
2023996
1084719
1278402
2041493
2801477
2283025
1883368
322019
2716351
948870
2743826
1493511
335797
2686266
1527771
1283076
251749
444860
446529
555387
2565696
1220601
755272
1168479
1555202
1557035
1414738
1084719
908819
2743826
1573458
455364
1814287
756275
756275
1168478
444860
251749
590739
1392231
268746
2547425
749413
908819
889951
2079543
948870
251749
268746
1880590
2801477
1814287
444860
2590946
889951
2510464
445688
2041493
984175
2759727
2743781
948071
2759727
2065203
948071
407392
2048977
1392231
455364
2041344
2023996
948071
2759464
2801477
2801477
948071
447909
2686251
2708562
445688
445700
2587814
2686266
1814287
889953
445700
2686251
1168479
1168479
205869
1150991
1965482
445688
754067
2510464
2565696
2686245
2801477
2686251
2562175
908819
1116482
1150991
444860
194699
2716351
445688
238854
2743781
194699
2743826
2547425
446529
948071
1327990
1815521
2743826
1084719
2743781
2801477
984175
455364
2601643
1283079
2510464
268746
455364
2686251
948071
2041207
445692
2741072
2023996
1542477
97195
446529
880162
444860
2510464
754042
2041344
2716351
1168479
212035
2588490
2743826
2508206
908819
1917232
2743826
455364
1883369
1084719
1542477
1527771
1220601
908819
754048
444860
2653725
2743826
268746
2115967
2743826
756275
1455075
455364
251749
151539
2041344
1557034
1542477
908819
2590946
455364
1880590
2686266
455364
2510464
753085
279280
756275
1814287
2041493
2041493
2041344
1557033
2419946
2801898
212035
909297
753084
1084719
2743781
2772074
455364
2041493
1327990
1590550
2041493
1147094
1084719
2743826
2590946
573174
1168479
1883368
2510464
268746
1883369
2686266
2041344
1868826
444860
908819
2686251
2743826
1557033
1814287
2686246
399781
2041344
2686245
399781
1283076
1084719
1527771
2743826
2743826
444860
444860
1357423
2686266
1557033
1084719
1814287
194699
445700
1557033
2801477
1042122
2801477
455364
1814287
754067
1042122
2686245
2686242
238854
889954
2041493
2510464
2801477
455364
1536592
2743826
1407493
444860
1969841
205879
2041344
347327
1536592
2070184
335797
2041344
753085
590739
573174
251749
1026955
2023996
268748
698487
2041344
1589274
2041493
1168479
693272
1137745
573174
1141136
2686266
445685
2492437
1821565
413066
2716351
268746
496874
880159
445700
455364
880159
251749
455364
1357714
2686266
1814287
889954
1168479
1883366
2716351
2743781
2023996
2023996
2053653
444860
1327037
2023996
2108127
2041344
1814287
2686266
251749
2026080
496874
2283252
2743826
880159
2023996
2686266
1335230
1357714
1814287
1814287
2686245
2686266
2743826
2041344
413066
1814287
445700
340435
1141136
2743826
1340709
889953
693272
455364
2041344
756276
1590550
2743781
2301529
2743826
981335
2041493
755272
693272
340435
889956
2547425
2801477
1283076
2725628
340435
2743826
2801477
2419946
2041347
889956
1327980
1557035
340435
1542477
2801477
1175654
2079287
2743826
2801477
889956
1589733
693272
2079257
2686251
2041344
455364
444862
268746
880159
2023996
2023996
908819
1557035
2743826
1873777
340435
693272
2041344
2023996
2801477
1557035
2743826
455364
1557035
251749
340435
2743826
2743826
2686279
1590550
2743826
2716351
642926
658401
1883369
1557035
1917232
2010329
1557033
2716351
455364
445686
2743781
444860
320837
909297
2743781
1527771
31535
343516
2041344
1527771
1883369
2163591
1868826
455364
1917232
2510464
590739
2801477
1557034
909297
1527771
1168479
2107707
2510464
2023996
1486472
1917232
2686245
2801477
1197951
2716351
1486472
1917232
455364
455364
2801477
10678
1917232
169683
948071
1220601
1150991
1917232
2041493
756275
2686251
889953
335797
2686246
2743826
2686242
205879
1168478
1873777
1084719
1913591
1557034
1567014
2716351
455364
2801477
546805
2301529
948071
2686266
1883368
2686245
2686266
2100130
2601643
447909
2023996
2743826
889956
948071
2743826
1969841
445693
889953
1524882
115987
2801477
880159
2014434
2565696
2070181
2024264
1084719
205869
1084719
2801477
1917232
1414737
1814284
445696
446529
445700
2686251
2686245
1084719
2510464
1392231
2686246
2686245
251749
2743826
1084719
444860
2743826
1897532
1113547
2743826
1392231
2812854
2686266
2301529
984175
2686251
2041344
2301529
2686251
2686266
1557034
2041493
2801477
2801477
1283076
251749
2686251
1932892
2716352
1557034
2801477
948071
2801477
1327971
1084719
2686266
1327980
756275
1493511
889951
2759720
2743826
2801477
889951
2713262
754042
908819
1527519
2041344
2686245
2716351
1814287
2510464
2686245
1327982
1392231
1969841
431893
2041493
2593360
1392231
2500574
936152
1327981
1586714
2801477
2048977
2741073
151539
2419971
756275
2812854
1814287
984175
1392231
335797
1557034
2686266
2686266
754042
1150991
981335
908819
2419971
936152
880159
151539
444875
756275
251749
1814287
455364
555387
2491321
2510464
2686266
948071
1868826
2686266
981335
446529
1586714
1327990
445684
1796997
880161
1536592
446529
194699
2686251
445688
889953
754042
2743826
2041344
2686251
590739
2555548
251749
2686266
1555202
2023996
889953
936152
194699
446529
2801477
1814287
1814284
2759724
2716351
1357714
1557033
2801477
10256
754042
948870
754037
2510480
1500757
2182319
2041344
2282904
115987
1527771
756275
445688
1883366
2510464
445684
889951
2743826
1168479
2716351
2686266
1542477
455364
2686245
1880590
2801898
1557034
1168479
444860
889951
948071
546805
754042
880162
2070026
2099637
889951
948071
2716351
909297
2743781
2743826
2716351
1327980
2010329
2491321
546805
2590946
755272
2743781
2743826
2716351
335797
880159
2801477
2686251
2716351
2686245
1557034
205879
754059
2079426
1934252
1917232
2743826
2743826
981335
1327982
2743826
1796997
1273711
981335
2079426
2801477
2801477
2686245
2686266
1220601
1557034
2801477
455364
268746
1917232
1283076
2041344
1327980
869662
2041493
755272
2530160
2801477
2716351
2041493
455364
889953
2070026
1168478
2686251
1327980
455364
455364
238854
455364
251749
2772511
455364
2023959
2023996
1880590
1880590
2023996
1301279
2590946
2716351
2510464
642926
754038
2023996
869662
2801477
981335
251749
2041344
1278479
251749
455364
2801477
1493509
2686245
2716351
1814287
1880590
1814287
2107707
2024264
1536592
446529
2743781
2743826
948071
2014434
2686246
889953
754041
2686251
984175
948071
2483719
455364
1542477
2590946
455364
212035
455364
948071
169683
205879
2010329
1557033
754064
205879
1542477
2696432
2593360
1557033
2041493
1586713
1392231
756275
251749
329254
2716351
2024264
2041344
1557033
573174
1283079
2545435
455364
1542477
756275
2743781
2301529
2743781
2686251
1590550
2801477
455364
2716351
2686245
754042
1814287
455364
2801477
2716351
212035
268746
1168479
1557034
1325953
2801898
1814287
910473
948071
1527771
2079426
2716351
2014434
455364
1168478
251749
2801477
948071
749413
546183
2686242
1283076
444860
2510464
1814287
1168281
2041493
444860
2743781
2725628
1493511
1814287
2686245
264729
2801477
2545435
1557033
1542477
1325731
1557033
1327972
2686245
1357714
2100130
1542477
2743781
2686266
2801477
1407493
1327976
754067
2510480
1573458
754067
590739
2014434
754042
2678601
755272
1917232
294631
1815522
1269028
2014434
49964
205877
251749
455364
1283077
755272
46021
10506
1814287
1220601
889953
10704
1917232
238854
2743826
1557034
536474
2565696
2686245
1273707
2743826
1792032
2070026
2743781
251749
756275
2048976
2510464
268748
1815522
1273711
908819
1540098
2041493
2743826
1141136
268746
255431
889951
1557033
2301528
115987
2801477
2024264
72201
1814287
1084719
268746
753084
1883368
1283079
2283026
2812854
1084719
1792032
1557033
2725629
1079999
445686
1472912
382359
455364
2100130
753084
2801477
2041344
2686245
1283077
322019
320122
557289
2743826
1837876
936152
2510464
1493513
2686245
1557035
268746
2686245
1084719
1536592
753084
2743826
2686245
1357714
455364
255431
455364
2686242
1821560
1168479
1150991
2686245
2686251
2772074
455364
2743826
1278479
382359
2743826
2041493
335797
444860
1273711
1814287
869724
2686245
2041344
1586714
2686266
255431
2686242
909297
1458842
906669
1327759
251749
2743801
2510464
2743826
2023996
340435
557289
1917232
1168478
444876
2743781
2743781
2743826
1493511
1325731
455364
1283079
2491321
880159
2315766
1414739
2547425
1407493
455364
1814287
2772074
948071
1557033
2686242
1557033
2686437
2801477
455364
268746
2510464
2801477
2743826
2743781
2801477
2686245
251749
2686245
2024264
2801477
2686246
1883375
444860
1161935
2686251
2743781
2743826
1357714
1557033
1814287
212035
455364
1542477
2491321
2510464
889953
445686
2801477
2015839
1034115
2743781
1814287
455364
2716351
444860
2743826
2743826
981335
2686245
1220601
2686245
1536592
2741074
46021
753084
765765
1883366
642926
1814287
1084719
2801477
1327985
2743781
331627
2743781
444860
2023996
1357714
2743781
2510464
2743826
251749
2716351
1557033
447909
1327971
2014434
446529
2301529
1084719
1168479
1168479
2041493
642926
2024261
2741074
455364
455364
2590946
444860
1814287
1965482
455364
181082
2041493
2741073
2024264
1585840
335797
754067
268746
2041344
908819
1327980
754042
455364
335797
1474867
1327934
2041344
2686266
590739
1084719
2743781
2023996
754067
444860
1051675
1168479
2041344
322019
2590946
2024284
2041344
1051675
910473
2686266
238854
268746
2283267
2491321
1880590
1051675
880159
2801477
455364
908819
2686266
1308863
1392231
294631
2301529
1868826
1913034
1883369
2801477
1917232
1141137
1536592
1392231
244310
2250416
644524
2743826
2743826
2801477
2301529
268746
447909
455364
889954
2686251
536466
447909
1327980
948071
2048977
1586715
2716351
268746
444860
1838075
335797
446529
1880590
1327990
2014434
2801477
1586715
756276
2743826
1868826
2686245
444860
2801477
455364
1392231
1327759
1026955
1115478
1815522
2686251
754048
2041493
268746
1917232
1327981
2041347
2070026
1335230
754067
2716351
1814287
1084719
445696
446529
1796997
2686246
444860
693272
2759725
2593351
455364
455364
445700
446529
322019
455364
1493511
1335230
2015833
2565696
696472
754048
2015873
1220601
2716351
212035
1814287
2686245
1881104
251749
2801477
2801477
268746
754042
380598
444860
2686266
1590550
1391659
2716351
205869
194699
2686266
1814287
2772511
2686251
455364
445686
1814287
2686251
2686251
455364
1168479
2686251
1220601
1868826
1883368
1814287
1328030
2041344
1220601
115987
756275
2562175
1084719
1557035
2801477
2686245
1220601
2041344
948071
2023996
194699
1557033
2686251
2801477
1084719
1585840
754048
948071
1557033
305674
2686251
1220601
2041344
1917232
2041493
908819
437329
2743781
2590946
880159
2686266
455364
10276
2812854
994601
1874585
242527
2510464
948071
1168479
455364
2686266
2801477
2741074
445688
1557034
2562175
1325731
444860
2743781
2743781
1325731
948870
948071
455364
1815521
2510464
1283076
1873777
1283076
251749
2801477
2023996
2743781
238854
2041344
2801477
268746
2716351
1814287
2590946
1536592
1897532
1327980
1141136
455364
2686251
1557033
756275
2041493
1283077
2743826
2301529
2741074
2708562
444861
1555202
2070026
1084719
455364
2686245
1573458
1917232
1557033
1913034
2743826
880162
1084719
414970
1557033
909297
2801477
2686266
2070181
2014434
2583039
2743826
2491321
2070181
1917232
2741074
1796997
565140
382685
2772071
1897532
2510464
753085
1168479
335797
2686251
754042
1536592
693272
2301529
455364
2686247
2686251
1493511
2023996
1432847
1168479
929835
1325731
2801477
2686245
1868826
2023996
455364
753085
1084719
446529
1815521
2686251
1527524
455364
1168479
948071
642926
1150991
749413
1586714
2686251
455364
642926
889951
889951
2686245
754042
2801898
2100130
2590946
340435
2686242
2801477
205869
2743781
251749
2547425
2686247
2743781
1335230
455364
1868826
1278485
2759732
2801477
455364
1327980
1527515
2686242
2743781
1127516
1407493
1392231
1557033
2070181
1161935
1557035
756275
691965
2686245
1406793
2686242
2743826
1792032
331627
2510464
536444
2801477
2686242
2079426
455364
455364
2801477
2743781
455364
1573458
948870
455364
1327980
2599838
1269028
2283303
2686242
444861
444860
1527771
1527771
2301714
455364
1168479
2801477
2686245
2510464
2759732
2716351
2801477
2686242
455364
2686251
908819
1325731
2686245
2686242
1283079
455364
948071
1392231
2495553
753084
2686242
1493511
46021
2686242
2686242
2510464
1327972
2510480
2686242
1206110
2686242
446529
756275
754042
1327980
2686251
2743826
753084
322019
2686245
2023996
458639
2686245
1883368
340435
1586715
2686245
455364
2772075
2743781
2686242
1084719
2268578
2686437
1357714
696472
1814287
2743781
1239565
2599764
2716351
2716351
642926
455364
1283077
889951
2801477
2041344
1168479
1113547
2716351
2041344
1527515
696472
1814287
2510464
2041493
1586714
2510464
172667
2041344
2678601
994601
1278485
212035
755272
749413
455364
1084719
1327980
1557034
2547425
2282904
1278485
2686251
2041344
1573458
2686247
754042
909297
1168479
2743781
1327980
2048977
251749
1392231
2686437
2686437
2268578
447909
455364
445686
1084719
2716351
1814287
2686246
238854
1327037
1283077
238854
754038
754042
1168479
1283076
1883365
2743826
1407493
2686266
2801477
1168479
756276
2029657
2696458
2565696
2686245
2686245
251749
1084719
399781
1391659
642926
2015839
455364
205869
2686245
2107707
2743781
2716351
444860
2801477
2801477
2686245
1814287
1325731
268746
2283026
251749
444860
238854
2686251
1586714
1392231
251749
2491321
889953
753085
1029988
1392231
264729
238854
2743826
483266
2565696
565140
2107707
1557033
2320191
2048977
1980924
2686245
1814287
2023996
1084719
205869
1325731
2041344
1084719
1557034
2772511
2024264
2801477
2686266
2801477
1308863
1557033
1557034
2801477
2686245
2801477
2182319
1051675
455364
2686251
1407493
1814287
2801477
1325731
455364
2743781
2716351
1814287
880159
1392231
2716351
2041344
380598
115987
2801477
455364
2686245
754042
1220601
179237
2801477
445693
880159
2500797
382262
2801477
160796
447909
2801477
455364
2023996
445696
2052742
260373
1032473
753084
1913591
2070026
2772085
2419946
1168479
455364
2716351
1917232
2023996
889951
2052742
1838074
2801477
2686266
2686245
194699
251749
2023996
2686266
447909
754042
2801477
536444
2557553
2743781
2743781
455364
2743781
2268578
889951
658401
2743781
447909
2743781
753084
1916123
2743781
754067
455364
2743781
2801477
2743781
1536592
2491321
251749
2743781
2743781
1557034
1868826
2743781
2743781
455364
268746
2686266
2601643
2743781
984175
1076255
2743781
754067
2743781
2743781
2743781
2686242
2743781
2743781
1815522
321023
1283076
2743781
2743826
2743781
754064
2743781
2743781
2743781
1349410
2743781
2743826
1557034
2743781
431893
2743781
2686266
1327983
2743781
998086
2283265
2686245
205869
2743781
1076255
444860
2686251
2801477
2743781
2743781
1084719
590739
1084719
2743781
1168281
2681630
444860
2743781
1239565
2743781
754042
2743781
2743781
2743781
2743781
2743781
2743781
2743781
2743781
2686266
2743781
2801477
2741074
2743781
2743781
2743781
2743781
981335
2743781
753084
2743781
2743781
2743781
2743781
2743781
2743781
2743781
2743781
2743781
1076255
2743781
1590550
2743781
2743781
2743781
2743781
2686266
1033977
2743781
2743781
2743781
2743781
2743781
2743781
693272
2743781
948071
2743781
2801477
948870
251749
2743781
2743781
2743781
444860
2801477
2743781
889951
2686251
1392231
207656
658401
2743781
2743781
2743781
2743781
1392231
455364
2686251
2743781
2743781
2743781
2743781
2743781
1220601
2743781
948071
2743781
2743781
2743781
754042
194699
2686266
2070026
455364
2686247
1051675
1557033
909297
2743826
268746
2801477
10276
1557033
1557033
35241
2023996
2070026
1335230
948870
2510464
2743781
2268578
948071
2048977
1392231
2510464
1349409
889951
2070026
1327980
455364
1555202
880159
2014434
2678601
2601643
2070026
2070181
2686245
1349409
1557033
455364
1541823
2686251
455364
1493511
948071
1308863
754042
455364
2562175
2686251
2801477
754042
1278485
755272
1815522
1168479
2041344
2023996
1586714
2070026
754042
889956
2812854
1327934
1572712
2590946
1557033
455364
2510464
444860
455364
2041493
1542477
2716351
455364
948071
181082
1493511
2725628
1392231
889954
455364
1168479
1883368
2708562
754042
2801477
889953
2686251
2041493
1917232
2041344
2686246
1328030
2041344
889954
2048977
169684
1392231
2041344
2590946
1868826
1392231
2686245
1084719
1168281
455364
2686266
749413
455364
455364
2686266
1557034
446529
331627
663241
2759732
251749
2743826
2743826
2686251
2686245
2686251
455364
455364
1392231
2283269
180504
754042
251749
2759393
1557033
455364
2801477
2686251
2716351
1283077
1084719
455364
2812854
455364
2801477
2686247
251749
2510464
2053653
1792032
1269028
2743801
2283031
1168281
438482
889956
455364
445700
642926
2510464
1557035
2801477
455364
1527524
1113547
2716351
335797
444860
2565696
2301529
880159
2759730
294631
1325731
320837
1796997
2010329
2801477
1278479
2801477
455364
1283077
2716351
1283076
2741073
2023996
2023996
2041344
1283079
2024264
2716351
2801477
1283076
590739
2686251
2041493
2686245
444860
1327980
114777
2015886
2743781
2593351
445686
2686245
1113547
251749
756282
2686251
2686266
455364
1429794
251749
2801477
1327971
2510464
2023996
2041344
2023996
2801477
1917232
2801477
1392231
445685
2686251
446529
1536592
1564096
2023996
455364
455364
1147094
2686242
756275
2801477
194699
382359
150286
546805
10276
546805
880159
1527511
446529
2041351
1815521
455364
455364
205869
2301529
546805
1198014
1327971
496874
1168479
756275
754042
2041347
2686242
1283079
2201421
382359
1493513
753084
455364
2741073
1917232
2686245
194699
889951
1150991
1150991
2801477
455364
2801898
10276
242527
691965
1168478
446529
2743781
697227
444860
2686242
2716351
1585840
2725628
1168479
2593360
2510464
1586715
1540090
557289
2686247
2590946
1887641
1084719
455364
683735
2510464
1084719
268746
1493511
1220601
1557034
2686247
2144176
2588131
1542477
2041493
198110
2741074
2510464
1868826
2510464
2686251
413066
2510464
2023996
455364
2510464
2759715
1883369
2510464
2510464
2716351
909297
2510464
455364
948071
2059855
756275
2483719
2743826
2686251
2686242
2491321
2079134
455364
331627
693272
889953
1327980
438482
926067
1147044
1980924
1325731
2510464
2562175
1327980
445686
2510464
2743826
455364
2686251
1168479
413066
413066
981335
1493511
2812854
1113547
251749
2510464
322019
2772074
194699
1814287
910474
1168479
1557035
2743826
2510464
756275
1391181
1814287
889953
948071
1132026
1814287
2070026
2070026
322019
1392231
1540098
268746
1524882
2182319
2686245
331627
2014434
1220714
1969841
1335230
1814287
1262528
1540098
573591
2107709
1557033
1573458
2048977
1327980
1883366
151539
2593360
1536592
2201436
948071
754042
754042
1913591
1814287
322019
251749
447909
1168479
753084
1127515
948071
2759393
1168549
889951
2801477
242527
910474
2716351
1883366
753084
1113547
1540098
251749
1474867
948071
445700
2772511
1883366
251749
754042
321023
2686266
1883366
399781
2686247
948071
1573458
2041344
934027
455364
753084
1814287
2801477
1814287
1557034
1814287
2510464
1084719
1168478
1814287
2686251
2743826
455364
2743826
2686266
2743826
2079134
2530160
2491321
1283076
2801477
1881104
2014434
1557033
1573458
2079278
1917232
2743826
1527519
2283246
2772075
251749
1557034
753085
10276
2743826
2686266
2053702
35241
1327990
205869
2741074
2510464
1340810
2023992
2801477
1392231
880159
447909
2419946
1557033
889951
936152
1557033
445686
1221835
1168479
1883366
1168479
251749
909297
2041344
2686247
2070181
929832
1557033
455364
1168549
1113547
2741074
322019
948870
2716351
2686266
756275
1327935
1327982
2716351
2301529
1536592
2048977
1917232
2686266
2023996
455364
2686251
455364
455364
1327982
2070026
1814287
1557034
2686266
445688
1557033
2686245
2686247
2023996
2686266
2555548
756275
1527524
2686247
382262
1493508
2762400
2686266
2743781
238854
1327982
1983572
981335
251749
2686245
205879
2801477
930275
1327980
2743801
2801477
1392231
380598
340435
2686247
693272
2743801
2024264
2686251
2740801
1283077
981335
1821723
1335230
2593638
2801477
1220601
1557034
2023996
2743781
1557033
909297
2801477
2024264
1557033
2268578
2015839
1273746
1327983
1796997
2801477
251749
2708562
2686266
2743781
2686245
455364
981335
335797
455364
2024303
444860
455364
2686266
1796997
1821560
2023996
2686247
335797
1327980
1557034
1335230
1472912
2759725
2686245
1557034
205879
2100130
2740801
1168479
1327976
2741073
444861
1557034
268746
268746
251749
2686247
1474867
2686247
2686266
1187128
981335
1308863
2510480
251749
268746
2024264
2686247
948870
1814287
251749
2301529
590739
2070026
207656
2070181
1557035
929832
455364
1814287
889951
2048977
1815968
444860
1357714
251749
455364
1084719
205879
1325731
1084719
2686266
2510464
948870
251749
1917232
2041344
1557033
2686245
1493511
455364
2686251
2686245
889951
251749
1327980
2686245
1327980
251749
2801477
1278479
642926
948071
642926
10732
447909
2041344
755272
754042
1340833
455364
251749
1527524
1084719
1327037
2741073
455364
2510464
1932892
2801477
447909
1536592
2801477
2686266
889951
2686266
889951
347327
889951
444860
251749
889951
1283079
251749
215158
205879
2686245
889951
2743801
1527771
331627
2801477
2743781
2743826
455364
1883369
948870
455364
2743781
2740803
264729
1168479
251749
2686266
2041209
889951
2041383
1557034
2070181
2593351
1557035
2686245
2686247
444860
1917232
2048977
2491321
1262530
10276
2708562
1555202
268746
948071
1084719
2743826
2590946
2686247
2708562
2716351
447909
2686247
754067
251749
251749
1327990
2048977
880159
2301701
638660
2686251
2801477
1204517
2725628
2041344
445686
2023996
2716351
1913572
693272
1567010
1084719
1220601
97195
455364
455364
2686245
658401
2014434
129009
2686247
693272
1293540
2686247
129009
455364
268746
129009
2686245
1586713
2743781
981335
948071
2686245
756275
754048
1796997
2743781
1527771
10276
1197951
1557033
251749
2023996
2801477
455364
948071
455364
2686266
268746
693272
2772511
2686247
1557035
1026955
504346
756275
1917232
2801477
2686251
2716351
2024264
2759715
268746
1572712
1084719
72201
2014434
981335
1917232
438482
2716351
1084719
1557035
1349409
2070181
1814287
455364
2115848
2767579
1273752
909297
455364
2510464
251749
1883366
889953
754042
1327974
2686245
1814287
2301529
1392231
2023996
2686266
1335230
455364
444860
2041344
1273752
2686266
1557033
2686266
2686251
948870
446529
1814287
2686245
2716351
1161928
455364
2743781
2686251
1557033
1557033
755272
2743826
2686245
1814287
2023996
438482
455364
320837
2801477
2801477
2743801
445696
2716351
2686246
1557034
557289
1113547
455364
1392231
1308863
2686247
2686266
1589748
2716351
2041493
930275
2590946
2801477
1557033
1500757
1168479
1283076
1557033
1407493
2301529
2801477
2686266
1883366
1962671
455364
1141136
1917232
2250289
1113547
1493511
2801477
205879
2015839
1465751
2545435
994601
2048977
889953
2686266
889953
2716351
1327980
1880590
1555202
455364
1327980
1536592
114777
1557033
1220601
691965
1567484
1113547
1084719
455364
2743801
455364
205869
1357714
2743826
2686245
2801477
1084719
1357714
2686266
2686251
151539
2716351
2801477
2079426
1814287
2801477
2686245
2686245
1557034
2801477
2716351
2759732
320837
1113547
2686250
754067
455364
2686266
2801477
1917232
2686251
2036055
322019
1814287
1573458
2772511
2743781
2743781
151539
1168478
340435
2036055
2801477
2653725
10276
446529
2686266
1168479
322019
2801477
1357714
35241
251749
2686251
1542477
2686266
37665
2070026
2801477
1327980
1883369
2743781
2583039
2686266
2686245
1327980
2041493
2686245
446529
251749
2686266
399781
2510480
455364
1340713
2041344
1557033
2048977
2041207
2759730
2070181
205869
2686245
1084719
2772078
2041344
2686251
1168549
1349409
1557033
2686242
1585840
2301529
2590946
948071
1814287
1327990
2686251
1327980
1308863
1084719
880161
455364
2024264
691965
2743826
455364
1327980
455364
2743826
2743781
455364
10506
1917232
2686242
1168479
2686245
754042
2686266
2743826
1079999
2510508
335797
2686266
2686245
444860
331627
2686251
1590550
2743781
880159
981335
981335
2491321
2024252
10678
268746
1486472
981335
1493511
2686245
2686245
260149
1917232
2696379
2708562
1084719
205879
205869
268748
2759732
2743826
1792032
1814284
455364
444860
2301529
1557033
1557034
1407493
205869
2686247
2759732
444860
444860
1493511
753085
380598
2716351
380598
880159
2510480
1917232
2023996
2743781
948071
756275
1327980
880159
2801477
1917232
1283076
1557033
150286
981335
1557035
1392231
2686247
1327980
455364
1051675
1211644
2743781
251749
2070181
1555202
2741073
1814287
1557034
1100790
2686245
2716351
2686266
755272
2743781
2686245
1325731
693272
322019
1150991
1524882
1273752
455364
755272
1084719
2686251
909297
1814287
114777
2686245
1555202
1557033
1084719
2510464
1493511
1883368
1493511
1392231
2107707
1567014
2686266
268746
1392231
1527524
1527524
1527771
749413
1407493
446529
1814287
445683
2801477
2545435
455364
335797
251749
251749
1141136
984175
696472
909297
2759727
2686245
455364
2510464
2029657
2686247
2015839
1524882
2743781
2048977
1493511
2716351
1392231
2708562
2599764
251749
2716351
880159
455364
455364
455364
1327985
691965
423476
880162
984175
2491321
2801477
455364
984175
445686
754042
455364
2743781
753084
2696426
2182319
1527771
2315608
1557034
1168478
2686247
1283076
909297
1392231
455364
1392231
1542477
2686247
889956
251749
444860
469660
2301664
455364
2772511
909297
1168478
1349409
2510464
447909
1814287
1407493
2801477
2801477
251749
1814287
2801477
455364
2741073
2593360
1349410
447909
444860
2743826
2686247
2686245
2023996
2686247
46021
1349409
1407493
2070026
1542477
2686245
2686251
2029657
2686242
1211643
948870
2070026
215158
1586715
2801477
984175
754048
1983572
2686242
321023
1917232
2107707
1873777
889951
1590550
455364
2510464
1221835
205869
238854
264729
1327037
455364
2762400
2801477
1129145
205879
2026102
455364
2601643
2716351
1527524
1880590
2070187
2743781
1392231
2250309
2801477
2743826
2686247
1557034
2491321
2301529
2801477
1541819
1211644
446529
2743781
2801477
2759715
1327980
455364
2510464
2743781
2686245
2419971
115991
2686251
444860
756275
2686242
1116482
205879
2743781
455364
1917232
2686245
2686266
2801477
2283031
251749
1542477
2588518
2686266
909297
2743826
2743826
889951
35241
2801477
2686242
455364
2041493
1407493
2743781
2686251
1204524
2686266
2023996
693272
2268578
755272
889956
1883369
1407493
2048977
880159
2301528
1814287
2686245
2686251
2696379
1557033
322019
2070026
1536592
2593360
642926
754039
2686245
1917232
2301621
2024264
2041493
2686245
2686245
2686245
1814287
2686247
2686245
2696458
1814287
2772078
2743781
749413
2041207
693272
455364
1327980
1881104
2048977
2686247
238854
444860
2801477
2801477
1524882
2801477
1327980
10276
2250335
2801477
294631
2686242
2801477
1168479
616674
2801477
242527
1907784
1273711
1916123
2801477
1141136
1590550
2686242
910474
948071
1815521
1283079
2801477
1417599
909297
546803
2801477
948870
1917232
2686242
2801477
1814284
2686437
1137745
2041493
2801477
2801477
2268578
1868826
948870
2801477
2041344
2070026
1392231
2801477
2801477
2014434
2759732
2716351
251749
455364
446529
1572712
2801477
1283079
2801477
1557033
2686242
910474
2686242
2024316
335797
2743826
2801477
2716351
2743826
2801477
2801477
2686247
2801477
1084719
756275
2772511
2801477
2743801
2801477
909297
879630
1032473
2801477
2801477
2590946
251749
889951
1220601
2686242
2801477
1033977
2801477
455364
2801477
2741077
1572745
1349409
1327971
2801477
1542477
10506
2801477
2041344
268747
2801477
2772074
2686245
2743781
2801477
2801477
2801477
2801477
2801477
1572704
2801477
2801477
2801477
2801477
2801477
2801477
1278479
2801477
2070181
2772511
2024264
294631
1557034
251749
2801477
2686247
1557033
2743781
2801477
2801477
2801477
2014434
2801477
1542477
2801477
2767570
1327990
2801477
2801477
1814287
2801477
2801477
340435
1796997
345201
1327758
2801477
2801477
2801477
2801477
2801477
2100130
1524882
455364
2801477
2686245
2801477
1084719
2801477
2801477
1557033
2686242
2801477
2686247
2686242
1542477
1557034
2801477
190478
2801477
2801477
2686266
2801477
2801477
1327971
2686251
2801477
2801477
2686242
2801477
2070026
2801477
2686245
2801477
1557033
1542477
1327980
2801477
2801477
2530160
294631
446529
2801477
2801477
1542477
205869
2743826
1168479
1283077
909297
1458851
1269028
72201
151539
2686245
2686247
2510464
151539
2419946
458639
1269028
264729
2801477
2743781
1567014
642926
1392231
251749
2723758
1296641
242527
1329402
2041493
1590550
889953
2686245
2716351
445686
2759715
251749
909297
753084
1327971
1885242
1536592
268746
10683
335797
2014434
2686246
590739
889951
2014434
880161
1084719
2014434
889951
205879
455364
1084719
1327980
2716351
10276
2041344
1084719
205879
2014434
2801477
1814287
251749
2653725
10506
1308863
1542477
2686266
2015860
2801477
444860
1141136
1051675
268746
10685
2686266
2686245
2686245
1032893
455364
2510464
2023996
1026955
2686251
2686251
1585840
889956
2686245
2686245
1392231
2743781
2686247
1897532
444860
455364
2301529
1392231
1042122
455364
444860
573174
1084719
322019
1980924
2686245
2014434
573174
2759720
573174
2801477
455364
1283076
10732
455364
573174
49964
1557034
756275
446529
1327980
1524882
2801477
2686251
1051675
889951
268746
2048977
753085
2268578
1493511
455364
2743826
2070026
445683
455364
573174
754048
1392231
1327980
1557033
573174
1113547
2716351
658401
1327976
1536592
2048977
1572712
1168479
754042
2801477
756275
2065203
2686245
2686245
573174
573174
2801477
573174
2759732
756275
573171
406340
194699
251749
2510464
2743826
948870
2590946
756277
1327980
573174
2268578
1557034
10685
2686251
2686245
573174
440250
2268578
320837
403905
2686266
2686266
573174
2301529
2725616
2743781
37665
2801477
455364
10732
1821566
573174
455364
1557033
1557034
10702
2743781
332032
1084719
1585840
753085
1084719
444875
380598
2743781
205879
1327983
2301529
331627
2041344
2510464
1168478
753084
2743826
2743781
10506
1084719
2041344
2743826
2772511
1084719
2419618
1168478
2510464
2686245
370623
880159
1335230
455364
1084719
251749
2565696
2686245
889956
1084719
2510464
2743826
2725628
1084719
2801477
1051675
2801477
1084719
1572712
2565696
1084719
1357423
2801477
2716351
1084719
1084719
294631
1168479
2510464
380598
2686251
2023996
2014434
2743781
1557034
2301529
2743801
455364
1325731
35241
2491321
948071
1814287
1557033
1084719
2743781
1868844
2743826
294631
1557034
455364
205879
2743826
2686251
2801477
1051675
2686251
251749
2704031
455364
2686245
2743826
880162
2070181
1084719
2801477
2743826
2267403
2587814
251749
2801477
2041493
753084
1084719
2716351
2686247
753085
2041493
948870
2593351
2801477
1392231
1586715
205869
753084
1392231
1557033
948870
2686245
2587814
1392231
2048977
2023996
1555202
2743826
1392231
2593351
445688
321023
2713262
1084719
2502409
869662
2743801
1557033
1590550
321023
445700
2079134
1084719
2053702
981335
536444
268746
2053078
2759393
251749
2593351
889951
1962671
1883366
455364
1084719
1493511
345585
2593351
1917232
1585840
754067
754067
1220601
212035
756275
268746
1883366
1109716
2041344
1980924
1084719
1541883
1328030
1407493
948071
504346
445686
1328030
1573458
268746
1327985
1392231
2593351
2510464
2801477
1557033
2686245
2510464
2686245
1407493
2023996
2686247
1328030
1557034
444860
1349409
321023
10243
2686251
321023
2593351
2686245
1327980
2053701
1327037
455364
754037
2510464
2070026
2801477
2801477
2545435
1486472
1168281
321023
1084719
1815521
1226260
1105171
2772511
1168479
1392231
1392231
908819
455364
181082
2801477
1838063
1327980
335797
445700
590739
1407493
205879
2144176
1392231
2716351
455364
251749
2301529
2601643
1392231
2070026
1590550
2048977
756275
753084
2686245
754048
2686246
2716351
1084719
251749
1917232
1084719
1084719
2801477
399781
1838063
546183
1392231
212035
1392231
2023996
455364
1391659
1524882
2801477
590739
1814287
455364
1557033
2801477
2686245
1814287
2772511
2268578
754055
1486472
1220601
2588515
455364
2587814
948870
1868826
2041493
2686245
2601643
1493511
2801477
447909
1815521
889338
1815521
2079426
455364
255131
114777
754067
1557034
321023
2107707
2801477
1586715
2686251
1815521
455364
205869
2686245
1897532
2510464
1897532
1282994
2801477
444860
445700
2023996
754070
1557035
1472912
1792245
1137745
1401669
2052742
1589751
1934252
1327037
2743781
455364
1327976
1527519
2716351
1147148
1220601
754048
2686245
2772078
1557035
1527524
445688
1283079
1084719
1168479
2686245
1269028
2801477
1815521
10276
455364
2686247
2801477
1542477
1084719
1868826
10742
555387
1980139
2686242
2723758
1557033
120574
2686266
2686245
2716351
1327980
1472912
382359
10256
268746
444860
1273749
1084719
251749
1327980
2725628
1084719
2743781
1557035
1573458
2743781
2587814
120574
1536592
696472
2686251
120574
455364
663557
1052673
1327976
1557034
2801477
1814287
2048977
10506
2048977
1392231
2743781
2041344
2041344
2686247
2716351
10506
444860
1572712
455364
1150991
1557034
2686245
2301714
1084719
2696426
1126885
880159
455364
948071
2801477
1814287
1980139
1220714
2182341
205879
1542477
2027899
446529
2024264
444860
2079426
1168478
1168478
2041209
2686245
446529
2686245
869724
889956
1555202
2107707
2048977
10506
2557582
2801477
2268578
1392231
207597
2743781
1962671
10506
1084719
205869
2686266
455364
10506
749413
2772511
455364
2686266
2743781
756275
343516
2686245
2686245
1327980
455364
445686
2686245
2686266
2716351
2716351
1542477
2686245
2743781
908819
948071
2686251
1327976
35241
1557034
2801477
380598
2024264
2023996
1814287
1814287
948870
2079426
1084719
2686266
455364
754042
445688
1042122
1168478
1557033
2686245
2801477
1168479
455364
1392231
2686242
1084719
1273749
2801477
2510508
455364
2801477
2079426
455364
72201
294631
2686242
909297
455364
455364
889953
1026955
1084719
2716351
948071
455364
1168479
1051675
447909
753084
754042
1557034
294631
1392231
294631
2070026
1536592
2723758
205879
1493513
1859492
754048
2041344
340435
2144176
1527771
2716351
754048
455364
455364
2686247
2801477
10256
1796997
1859492
880159
2716351
889956
340435
455364
2301528
2686245
455364
2686245
2686251
251749
2772511
2041493
455364
251749
1917232
455364
1392231
1913109
2686251
115987
2801477
251749
889953
2491321
2686247
2686251
2801477
251749
205879
2686242
2801477
889956
2024264
2686242
455364
2686242
674081
754042
455364
455364
2491321
2801477
1177632
455364
546805
2716351
2048977
455364
1868826
2716351
413066
2716351
2801477
2419946
2686251
1557035
455364
1913591
536466
2743826
2048977
756275
2023996
1084719
2762400
1084719
2686245
1814287
264729
212035
2510464
447909
1964565
2048977
264729
1585840
264729
10506
1493514
380598
2743801
754042
320837
2723758
2510464
2716351
1278485
205879
1407493
1590550
1052673
1572745
2686266
536466
2686245
1586715
2010329
1917232
2023959
251749
1327980
2023996
2686245
2653725
1962671
2023996
2545435
2048977
2070026
696472
447909
755272
444860
455364
10506
2801477
2743781
455364
2686245
948071
2686245
756275
1814287
2716351
2686245
2079426
2079426
1498227
2510464
455364
251749
455364
1524882
936152
2686245
2686251
1542477
1542477
1329402
2801477
2023992
642926
2048977
2686245
2686251
207656
1557033
1349410
2743781
658401
2268578
251749
2686251
696472
1883366
2686245
2653725
2716351
2716351
2686245
948870
1084719
2686245
889953
2686245
455364
1557034
455364
2801477
2759720
2801477
2010329
194699
2268578
2014434
1883366
1542477
322019
2023996
294631
1026955
1084719
2686247
1168479
10754
2686245
2048977
444860
446529
2741073
2686246
1474867
1327980
2741073
251749
1392231
251749
455364
1327980
889953
1051675
2686251
444860
455364
1327980
1586715
10276
2686245
455364
1308863
444860
2686245
2801477
399781
984175
1493511
251749
1052673
1328030
2023992
120574
1414737
2801477
948071
1557034
2070181
2772511
2741077
2301529
455364
2801477
455364
1414737
2716351
1458863
1557033
2015839
2686245
536453
1540097
889953
380598
1414737
1052673
2801477
1407493
2743781
1051675
455364
2762400
2686247
693272
2107707
2053812
2801477
754067
1127518
1542477
1084719
743813
1283079
2664196
1168549
1161935
2686245
2023996
1572712
2048977
1327980
399183
889953
948870
1220601
380598
1414737
1026955
2024264
1392231
1407493
2115967
2716351
2801477
321023
504346
1815521
2283026
1557035
2545435
1176422
399781
1557033
948870
2743826
1815968
2565501
2593360
1557034
754048
1821566
1392231
1913591
251749
1283079
1917232
2686245
198110
1335230
1572712
176652
2686245
2530032
2743781
264729
1328030
2772511
1283079
2801477
2565501
445696
10732
1283079
340435
948071
536453
2772511
251749
2801477
458639
2601643
948071
455364
2590946
1572745
264729
753085
1392231
2686245
331627
455364
2301528
909297
455364
2301529
2686247
1283079
1283079
1917232
1283077
10732
1392231
1273752
1573458
2801477
1542477
1084719
2743826
2041344
1572745
1792032
2801477
455364
2593360
1814287
2686266
2801477
445688
2041344
2652415
948870
753084
1527771
268746
1962671
343516
2048977
2743781
2601680
251749
2041344
2070183
445696
981335
445696
2587814
753084
1407493
1392231
1340810
455364
251749
2708562
445700
2041344
1557033
749413
2070026
1327976
2041344
1168479
2686245
2023996
1235689
455364
2743781
2510480
1129194
2716351
2283026
1536592
1340812
2801477
2686247
2801477
2301529
2041344
1357669
10506
445692
2686247
2686251
268746
2517973
2716351
754042
1557033
754042
1407493
756277
151539
321023
2107707
2686245
1084719
1557033
2510464
455364
2716351
370623
2023996
756277
320837
2070183
948870
2686251
756275
320837
2686266
1917232
10506
251749
753084
880159
370623
2743826
2041344
370623
880159
1917232
2743826
1586714
242527
948071
335797
948071
2801477
1269028
1283076
2741072
2743826
1084719
2014434
445700
753085
1590550
1026955
1357715
1917232
2024264
2741074
994601
889954
1084719
2686245
889953
948071
2301529
1392231
2070181
335797
2686245
1084719
35241
1557033
1327990
889956
948071
1283079
2686245
455364
1392231
446529
1814287
948071
948071
754042
754042
2545435
455364
2014434
445696
1327980
2686251
1340709
49964
1557034
1557034
1815521
1308863
2249780
251749
642926
2686245
2686251
455364
2686245
2686251
10506
1328030
948071
2743781
2743781
1493508
120574
1327980
445683
2419942
1392231
1557034
2048977
455364
1493508
2530032
2740800
445700
1814287
1486472
10685
455364
198110
1407493
445700
1051675
1220601
2686251
2801477
251749
2014434
1273711
2801477
2740800
2716351
2584487
1527771
2048977
2741073
2686251
1555202
2583039
2740800
590739
2686245
2801477
1392231
1792253
1557033
1573458
1838072
2686245
1572704
1792253
321023
1084719
2740800
1792253
693272
1269028
1838072
2741075
1327981
984175
212035
2584487
1335230
37665
2741074
2686245
251749
445685
2268578
2743826
1175654
1792253
1392231
2740800
455364
1392231
1329402
1084719
455364
212035
1327980
1586715
2686245
2517966
2079426
2591126
1486472
2023996
2041344
2686245
754042
335797
2686251
1150991
2041344
2025360
2024264
2079426
1557034
1327980
1084719
2801477
1084719
251749
445700
1327980
455364
2283271
2743829
2053813
455364
455364
447909
1084719
1792253
251749
1327980
2686437
2283303
447909
2590946
1282994
2024264
2801477
2686245
1557033
1273711
2686245
1392231
2749430
2023996
1168479
2023992
1983572
1051675
1969841
2801477
1392231
2014434
331627
331627
2759393
1036616
2686251
10682
2510464
1814287
948071
2686245
1168479
1962671
2023996
251749
2686266
1084719
1392231
1327980
1557035
948870
1814287
2686247
1327974
1357423
1084719
251749
251749
1530085
268746
1917232
264729
230158
2686245
2801477
749413
1327980
1168478
120574
1962671
2510464
455364
268746
936152
1917232
2686266
1814287
1557034
1887644
264729
2686247
2801477
2801477
2743826
2686251
2590946
2686266
120574
321023
2686266
2686266
455364
2801477
1542477
2686247
2686245
2741074
2743826
889956
2500827
2801477
1084719
2686266
2041344
2491321
1883366
2070181
455364
2743781
2725616
455364
1814287
2301529
445686
1474867
268746
268746
268746
754067
2708562
455364
909297
455364
2070026
2301664
753084
889956
1084719
97195
1536592
2163630
2801477
981335
1136535
1220601
455364
948870
2696458
2026102
2686246
2250289
2510464
444860
1917232
2686245
1557033
1392231
2686245
2686266
2053812
1168478
936152
1983789
251749
251749
322019
2801477
1557035
1327980
1557034
1883371
268746
1392231
2301529
1557033
380598
546183
2070026
1883368
10256
2041344
2743781
1084719
1392231
10256
1458716
753085
2686245
2024264
1557034
1883368
936152
2743781
889956
455364
268746
2079289
1557035
2743781
756275
2686273
2510464
2686245
1814287
2545435
268746
1493511
2743781
1327972
268746
1147094
2070026
2716351
2686247
445696
2026102
2686266
268746
2491321
1084719
1873698
948870
445688
1007869
590739
1327758
444860
1084719
1486472
590739
455364
2772511
1150991
1206558
2801477
1340810
2250289
590739
1283077
2686245
1815522
2801477
1814287
251749
380598
2041344
1913591
1917232
1392231
562742
1567014
2144176
380598
251749
115987
445696
1220601
2686245
2508206
331627
1357714
251749
31757
1283077
1557033
455364
2743781
444860
455364
444861
251749
1283076
205869
2686245
232237
2587814
889956
444860
2686245
2382310
10732
455364
1392231
455364
1109717
455364
2772511
151539
440250
1586713
268746
565140
1084719
1051675
1907784
1792032
2801898
2686246
2686245
31757
756275
455364
444860
2686251
1239565
445696
1349409
1417599
754041
984175
749413
2686245
948870
268746
754041
1814287
445686
2743781
1084719
1429793
2301714
2725628
1084719
1814287
251749
754046
1041807
2759726
2743781
1838063
1555202
1273749
268746
1084719
380598
2014434
1917232
1589751
1168479
2686245
444860
1897428
749413
2014434
455364
2686251
1527524
1814287
2801477
2686245
1113547
551895
251749
1392231
1917232
2510464
2070026
909297
551895
2801477
461711
948071
455364
2070026
2743781
1273749
2686245
2772511
948071
2743781
380598
2283261
2010329
749413
2686245
2743781
693272
756276
2725628
2743781
590739
1913114
151539
948071
1335638
1542477
1838075
1392231
2686245
2743781
2772511
446529
1273749
2743781
1814287
2801477
1814287
2070026
10449
1557034
2743781
754039
981335
2686251
446529
889956
1449437
754075
1965490
555387
2686245
2686251
1557033
2301529
2686245
1542477
1983784
2743781
2023996
1814287
1814287
1557033
1458842
2048977
1084719
445688
1557034
1524882
2801477
2070181
1084719
2686245
936152
1814287
2801477
1084719
590739
2053702
1407493
1965368
2686245
1327981
10702
1128424
936152
1557033
2801898
1557034
2023996
251749
1392231
909297
455364
1814287
2048977
1084719
10690
2723758
1084719
754067
1557034
251749
1084719
1147094
1542477
1084719
1026955
1084719
2079426
2048977
2041493
1220601
2801477
2743781
1392231
455364
447909
1129194
2686251
1084719
194699
2023992
1168478
455364
455364
1493511
753085
2590946
293644
2024264
2268578
399781
2686245
455364
293644
889953
35241
2743826
908819
2686245
2048977
909297
1868826
948071
1873698
936152
1220601
754042
1493511
1814287
1327971
1084719
1084719
251749
455364
1147157
2545435
2023996
1278479
1084719
1917232
1084719
984175
2801477
2741074
212035
1084719
1084719
2743781
936152
2712958
2801477
2301529
455364
1269028
1392231
1814287
2686245
1814287
2686245
2686266
936152
936152
2740801
2686245
2749430
2686245
2041344
455364
2048977
1168549
445696
458639
1814287
2801477
2565696
2686245
754042
2801477
2070181
35241
2510464
2716351
641487
2268578
1327980
1815522
1874593
2036055
1962671
691965
1486472
212035
212035
2052742
1327976
753084
2301621
1493511
670252
49964
2041493
1439894
1392231
753084
1557034
1168478
2023996
1150991
1557033
2041493
251749
268746
455364
889956
455364
455364
2079426
238854
1127515
889956
444876
268746
2686245
455364
455364
2510464
251749
2801477
1917232
2041344
889338
380598
1327971
2743781
1051675
1269028
2070181
2801477
1084719
10704
1586714
756280
1392231
754059
2491321
2801477
948071
2716351
755272
1349409
753084
455364
2686245
948071
2759727
294631
444860
1084719
1392231
2301529
1141136
2743781
2801477
2741072
1137745
268746
2172042
590739
2591403
59241
1126885
1505225
1283078
1084719
1220601
1814287
320837
445700
251749
2759725
2743781
665032
948870
2182350
2484217
693272
1560283
2491321
1557034
1327971
335797
2023996
1262513
2588098
1084719
1527771
1917232
2301664
1392231
2686245
2023996
10754
151539
255131
1557035
2041493
1586714
1450746
753084
2719575
455364
2041493
1536592
2301715
696472
2301529
756275
1407493
2741073
1283077
2686266
2762400
1327977
1392231
1283077
1168549
2301529
2740801
880159
2212563
2743829
2686247
1407493
546183
444860
2301529
1283077
1079998
2686245
2023996
2593360
909297
2741073
455364
2023992
455364
1084719
1814287
2740800
1392231
2740800
444860
2801477
889953
1349410
1071503
205869
1269028
455364
1269028
1883369
2686247
2743829
2212563
1493511
754042
693272
2510464
1557034
1328029
749413
1814287
2741072
2686245
2686247
1220717
2015860
2686245
194699
1041807
1126951
97195
1557034
948071
2686247
2740801
2686251
242527
755272
2510464
2801477
1844477
1141136
2686247
1026955
2801477
1493514
2801477
2801477
2801477
1573458
2686251
2590946
212035
2801477
1327980
2801477
1542477
2686245
2801477
2801477
2500797
2801477
2686245
46021
2801477
1084719
294631
2801477
2686247
2283269
631719
2801477
2801477
10678
496874
447909
2801477
46021
948071
2686251
2024264
1542477
2725628
2801477
10506
1129145
1283079
2801477
2686245
2801477
1540823
2801477
2686251
2801477
2801477
1897525
2801477
2743781
1965478
2801477
2801477
1084719
2014434
1542477
1327980
2801477
455364
1220601
754045
1357423
446529
2801477
2801477
49964
754048
1198013
2801477
2510464
2593351
2723758
2801477
2686242
2510464
2023996
2010329
1814287
2801477
2144176
455364
2801477
2653725
1557034
2743781
1220601
455364
2053653
2041344
1269028
753084
948870
2743781
2801477
2686245
2801477
1814287
2801477
2801477
2686242
445686
2686247
2801477
2801477
1814287
2801477
2801477
1527524
2801477
2772511
1573458
1557033
2801477
1557035
251749
2686247
2801477
1150991
2801477
2041344
1308863
753085
2801477
536453
2801477
1572712
1269028
1917232
2686247
2801477
2079426
1838074
2801477
2801477
2801477
455364
1873698
2801477
2686245
2801477
2686242
2801477
2801477
2801477
2801477
2023996
2801477
1980139
268746
455364
2801477
2801477
2801477
320841
2801477
268746
2801477
444860
251749
251749
2801477
2686245
2801477
455364
340435
2801477
1542477
2023996
320841
2801477
2801477
2801477
2686245
2686242
2801477
2801477
1327980
1897500
2801477
1407493
2801477
2772511
2801477
2801898
2686245
2070181
2801477
455364
1278485
205869
205879
2686245
2024264
205879
642926
2686245
2740802
2686245
251749
1392231
2510464
1557034
1557033
1555202
756276
2041493
2014434
754048
370623
948870
2686245
2801477
2014434
2024264
444860
445700
1335230
447909
1168478
1572712
2023996
2510464
693272
445700
1917232
948870
1327990
2041344
2743781
2772075
2741074
2686266
2740800
2010329
2716351
1962671
2070026
1325731
2070181
2053813
2026944
2801477
1881104
1137745
2510464
754042
2772511
909297
2070181
2716351
445685
445688
909297
1527771
1392231
455364
2010329
1527519
2510464
1557033
194699
2182408
2801477
455364
455364
2510464
1084719
2686245
455364
2587814
1137745
205879
2686245
1325731
546183
251749
753084
1340833
2686251
2686247
2027272
693272
268746
880161
455364
1458856
2708562
1407493
2070026
2653270
2653725
455364
455364
1168478
2686245
755272
2014434
754064
1042122
2590946
2014434
1327980
2686266
205879
2070026
455364
212035
2686245
1493509
205879
2716351
1168478
2762400
2686245
444860
455364
754042
753084
755272
2741072
1084719
1168479
1814284
754042
114416
1814287
455364
380598
1873777
445686
446529
446529
1814287
268746
35241
1883366
1141136
2716351
2686245
194699
370623
2010329
1814287
1357423
755272
205879
2488571
1133292
1557034
642926
2588515
1407493
2079426
889956
1407493
2070187
1327974
455364
1821563
2601643
2283026
335797
1590550
756275
1557033
1084719
446529
2024264
1084719
205879
71366
1481187
2686245
2686245
1407493
1168478
1557033
2686245
2510464
1283077
2686245
1486472
1220601
2801477
2686251
268746
880159
994601
2801477
2014434
2144176
2530118
1349409
909297
1349409
455364
1220601
2024264
1557033
2686247
1429793
1589733
151539
1325953
1814287
212035
1814287
2041383
1883369
2079426
2686245
880162
2041344
2053813
753084
2023996
1557033
2024303
2743826
2801477
2704031
2743781
2070181
749413
2716351
1934252
642926
1557033
2743826
753084
2686245
2686245
2029671
2686251
320837
2041344
693272
1283077
1137745
573174
1283079
1873777
2743781
2510464
1168478
2484217
1026955
180504
1557034
1792032
665032
2014434
2767579
1792032
10506
2801477
2686242
445696
2041344
573174
1283077
642926
2283026
1414737
642926
573174
251749
2545435
755272
1527771
2686273
1327990
909297
2743781
2502409
445688
1137745
1560514
2565501
1327980
2510464
2801477
573174
1486427
115987
753084
1814287
1883368
1414737
2530032
754059
948071
2686245
755272
2716351
573174
1557034
37665
573174
413066
455364
1917232
2801477
2014434
455364
2070026
2740800
1407493
1407493
1168479
251749
1814287
1392231
2024264
2053812
1392231
115987
1084719
2762400
1084719
1567484
1980139
1814287
1585840
1137745
2686245
2743781
1530085
1527512
10506
1814287
1283077
2772059
2741072
1557034
2163598
1542477
1814287
2801477
1814287
2510464
1814287
251749
1557034
2801477
1897537
268746
212035
2801477
1414737
691965
2048977
1414737
2182319
1557034
1792032
1407493
1527524
1557034
2686245
2686251
455364
693272
2590946
1414737
2725629
2024238
573174
1814287
444860
1084719
335797
1814287
1084719
2014434
1527524
1814287
1407493
2743781
2743781
212035
2801477
1881104
455364
1137745
1327980
455364
1392231
1590550
2801477
2491321
1407493
1536592
2024264
455364
2126819
1527524
2510464
251749
1079998
1983572
1392231
948071
2048977
1439894
205879
2555548
948071
2583039
1357714
754042
2708562
2686247
2070026
2686251
2743781
1573458
1392231
205879
2048977
1273749
455364
2041493
1536592
693272
1084719
2801477
2696356
1493510
445688
251749
1417599
461711
2079426
2801477
2023996
1392231
2686245
948071
1814287
2023996
1084719
2801477
1084719
1589733
2801477
37665
1392231
97195
2041493
2696458
268746
2048977
2041493
1573458
2041344
1278402
1493511
754042
889338
869724
1555202
1557033
2070181
2686251
1557033
2023996
2801477
948071
756275
455364
909297
2801477
948071
2801477
380598
10506
948071
10710
1573458
754042
447909
1868826
1392231
251749
2759732
1052673
2686245
335797
2686251
948071
889956
1357714
294631
1917232
1308863
2301528
445688
1557034
2041344
756275
445684
948870
445696
1357714
1327939
2743781
1327981
1137745
445684
693272
455364
2070026
1557034
693272
298338
294631
1458716
455364
445688
2801477
1814287
10506
1084719
754042
1407493
2023996
2801477
936152
756282
1116482
1590550
2026102
2070026
2024264
114777
455364
114777
1913591
251749
1137745
2696379
2801477
2686251
1052673
2545435
2801477
2801898
2419971
1327980
1109717
2029657
536466
1586714
2686245
455364
1883369
2587814
1883368
1414742
2024264
2743826
445700
756275
1792032
1273747
1917232
2023996
1392231
1557033
1407493
2716351
1983572
1187128
1873777
1084719
2023992
455364
1141136
2508206
97195
2510464
1392231
455364
1493513
212035
1814287
455364
1392231
2182408
1084719
1407493
1557033
1026955
1283076
1332145
2801477
2686246
1283077
455364
321023
2801477
1965474
536466
1392231
114777
1084719
2070181
238854
1493513
2686245
880159
1557033
2023994
455364
2686245
2041855
948071
1527519
1327980
455364
754042
1572745
1486472
880159
455364
1586713
1814287
1814287
1335230
212035
889951
2491321
399781
1349409
2070026
1536592
1814284
1084719
1127515
1524882
1282994
1283077
2801477
2743801
1887641
1814287
1220601
2801477
2024264
1392231
2772511
1129145
2801477
1392231
2696426
2268578
2041493
264729
455364
1084719
2079426
2070026
1873777
2041493
2593360
2743801
1391659
1392231
446529
1392231
1084719
2686245
1392231
523909
455364
2801477
2686245
2590946
2801477
2686245
889953
2107707
455364
693272
2743781
2686247
2743801
1493511
984175
1327972
447909
2801477
1327037
2686245
2743781
1814287
2686245
445700
1557035
1273752
268746
1542477
2801477
1557034
1572712
2510464
1557035
1177632
1814287
1392231
444860
948071
2686247
12643
2491321
1557035
268746
1557035
10506
2743826
2686273
1567484
380598
2801477
455364
2686247
115987
251749
455364
1557035
335797
1557035
1493511
2686266
889953
1814287
948870
1557035
2041344
1327982
1557034
2686245
756277
1542477
455364
753084
1932881
2054179
1168479
1814287
268746
321023
445700
909297
320837
455364
2510464
2510464
1084719
754075
1084719
1814287
2686245
2686245
753085
1084719
1542477
2686245
251749
1883369
380598
255131
2070026
268746
1814287
754067
2740801
1406785
2545435
1084719
1407493
1814287
926067
2696426
880159
2024264
455364
1283076
455364
2801477
2079282
151539
2587814
455364
1917232
696472
2801477
1555202
2182319
2301529
264729
2686247
2801477
2716351
2048977
458639
268746
2510464
2743781
1116482
251749
2144176
1052673
1084719
1327980
2743781
251749
2587814
2014434
2686266
880159
1407493
754067
2686251
756275
2014434
754042
455364
753085
1327985
445700
2070181
2743781
2023996
2510464
445696
1852622
523909
1917232
1349409
268746
2686245
2023996
251749
1392231
2686247
1327759
756275
1084719
2686251
1814287
455364
2686251
10506
2024264
455364
2801477
294631
1542477
2023996
1407493
1883368
2716351
1392231
2801477
2741073
2686245
756275
999883
504346
880159
2743781
2052742
1965368
2686247
1541883
194699
2014434
1536592
1273707
2024264
455364
2250291
1084719
2743801
251749
445700
1141136
446529
455364
2801477
1273752
1036616
445696
2590946
1084719
1486472
889954
2144176
2510464
880159
1392231
2510464
2320191
1814287
2716351
2065203
663241
2716351
2023996
1349409
1084719
1572712
2801477
1557034
2686251
1349409
880162
2708562
1176422
880159
2696426
2743826
1327990
2686245
320837
2079426
2545435
2041493
455364
10754
1141136
294631
1838075
2510464
455364
49964
948870
1557034
2023996
2024264
880161
115987
251749
445686
1573458
1220601
2023996
754042
880159
2023996
1814287
1220601
455364
948071
2023959
984175
181082
2015817
2015817
455364
2041344
1868826
455364
1458716
181082
1220601
2743781
2801477
880161
1105286
1327980
2801477
2079426
670252
251749
445686
251749
455364
2686245
2686245
1814287
194699
1340812
756275
2510464
66797
1084719
340435
445696
2070028
2801477
1586715
1572712
1557034
294631
31535
2250335
444859
1327972
2801477
755272
66797
268746
889956
1814287
2041493
2053702
2716351
2801477
1814287
1084719
347327
68347
1084719
1283076
1814287
1573458
294631
754042
2027899
2801477
573174
2301528
1392231
1392231
2510464
2741072
294631
1392231
2510464
2587814
1392231
251749
205869
1493511
340435
251749
696472
251749
2759715
948870
445700
753084
1283077
1340812
2048977
2419949
115987
444859
756275
320837
1168479
2182408
1141136
2772511
2419946
754075
2772511
1176423
2686245
251749
984175
1283076
2686245
1327980
2686245
981335
2070181
2686247
754042
1814287
880159
455364
2801477
1868826
2686247
1084719
948071
1084719
205869
445700
455364
2036055
1168479
251749
2743781
2014434
340435
2801477
909297
251749
1407493
1211640
2686245
2743781
889956
1034133
2743781
444860
1168478
1116482
1084719
1283077
1493511
1392231
2686251
2686251
2070183
251749
2696379
1033977
1573458
2716351
1168479
2686245
1392231
444875
251749
373126
2708562
1168479
1962671
1327971
455364
2743781
205879
1137745
2510464
2041493
1962671
2041493
1084719
2182408
2686245
2801477
1357423
2743781
1034133
2024264
1084719
171618
380598
455364
1084719
2686245
455364
2741072
1129145
1220601
2801477
2593351
2182408
1084719
1407493
2070028
1392231
1349409
194699
2740803
