1883369
1586714
2801477
2686247
2686247
1340810
2801477
2801477
2686246
2686247
2686247
2686247
2686247
2686247
2686247
2801477
2686247
2686247
2686247
455364
2801477
2686247
2686247
2686247
2686247
2686247
98383
2686247
2801477
2686247
2686247
2686247
2686247
2686247
2801477
2801477
2801477
2686247
2686247
2268578
1340810
2686247
2686247
2686247
2686247
2801477
2686247
2686247
2686247
2686247
2686247
2686247
2801477
2686247
2686247
2686247
2801477
1586714
2686247
1883369
2801477
2686247
2686247
2686247
2686247
1586714
2686247
2686247
2686247
2801477
2686247
2686247
2686247
2686247
1883369
2686247
1586714
2801477
1586714
2686247
2686247
1883369
2686247
2686247
2686247
2686247
2686247
2686247
2686247
2686247
2686247
2686247
2686247
2686247
2686247
2686247
2686247
2686247
2686247
2686247
1586714
2801477
2801477
1586714
251749
1586714
1586714
1586714
1340810
1586714
2801477
2686251
2801477
251749
2801477
1586714
1340810
2801477
2686251
2801477
2801477
1586714
2801477
1340810
2801477
2801477
2801477
2801477
2801477
2801477
2801477
1586714
2801477
2801477
2801477
2801477
2801477
2801477
1586714
2801477
1586714
251749
2801477
1815522
2801477
455364
2801477
2801477
2801477
2801477
2801477
2801477
2801477
2801477
2801477
1340810
1340810
2801477
1586714
2801477
1340810
455364
2801477
1340810
2801477
455364
1340810
1340810
2801477
2801477
251749
2801477
1883367
251749
251749
2801477
2801477
2801477
2801477
251749
455364
2801477
2801477
2801477
2801477
251749
2801477
2801477
2801477
2059380
2801477
2801477
2801477
2801477
2686251
2801477
2801477
2801477
2801477
1586714
455364
687803
455364
2801477
2801477
2801477
999883
2801477
2801477
2801477
2801477
1815522
1340810
1586714
2801477
880159
2801477
2801477
754042
1340810
2801477
2801477
2801477
2801477
251749
2801477
2801477
2801477
2801477
251749
2801477
754042
2801477
2801477
2801477
2801477
2686245
251749
1586714
2801477
251749
2801477
2801477
2801477
1586714
1493509
2801477
2801477
2801477
2801477
2801477
251749
2801477
238854
251749
2801477
2801477
2801477
455364
1586714
2801477
2801477
2801477
2801477
2801477
2801477
2801477
251749
2801477
2801477
2801477
2801477
2801477
2801477
2686266
2801477
2801477
2801477
2801477
2801477
2801477
2801477
2801477
1493514
2801477
2801477
536474
2801477
2801477
2801477
2801477
2801477
2686251
2801477
2801477
251749
2801477
2801477
2801477
2801477
238854
2801477
2801477
1586714
1586714
2801477
2801477
2686266
1586714
2801477
2801477
2801477
2801477
2801477
2801477
2801477
2801477
2801477
2801477
2801477
2801477
2801477
2686266
2801477
2801477
1586715
2801477
2801477
2801477
2801477
2801477
2686266
2801477
2801477
2801477
2801477
2801477
251749
2801477
2801477
2801477
2801477
2801477
2801477
2801477
2686245
2801477
1557033
2801477
2801477
1557033
2801477
2801477
1557033
251749
1557033
2801477
2801477
2801477
1557033
1557033
1557033
2801477
2801477
1792289
2801477
2801477
2801477
2801477
251749
2801477
2801477
2801477
2801477
2801477
2801477
2801477
455364
455364
2801477
2801477
2801477
2801477
2801477
2801477
2801477
2801477
2801477
2801477
2801477
2801477
2686245
2801477
2801477
2801477
2801477
2686245
2801477
2801477
2801477
2801477
2801477
2801477
2801477
455364
2801477
2801477
251749
2801477
2801477
2801477
2801477
2801477
2801477
2801477
2801477
2801477
2801477
2801477
2801477
2801477
2801477
2801477
2801477
2801477
2801477
2801477
2801477
2801477
455364
1586714
251749
2801477
2801477
2801477
2686246
2801477
2801477
1883369
2801477
2801477
2686245
2801477
2801477
2801477
1586714
2801477
2801477
2801477
2801477
2801477
2801477
2686247
2801477
2801477
2801477
2801477
2801477
2801477
2059380
322019
2801477
2801477
2801477
2801477
322019
2801477
2801477
2801477
2801477
2686246
2686247
2801477
2801477
1883369
1586714
2801477
2801477
2801477
2801477
2801477
2801477
2801477
2801477
2686245
2023996
2686247
1278479
2801477
1586715
2801477
2686246
2801477
1340810
2801477
2801477
444860
2801477
2801477
2801477
2801477
1586714
2801477
2801477
2801477
2801477
2801477
2801477
2801477
2801477
2023996
251749
2801477
2801477
2801477
1586714
2801477
2801477
2801477
2801477
2686245
2801477
2801477
2801477
444860
2801477
2023996
2801477
2801477
2801477
1586714
2801477
455364
2801477
431892
444860
2801477
2801477
2801477
2801477
2801477
2801477
2801477
2801477
455364
2801477
2801477
2801477
2801477
2801477
2801477
251749
2801477
2801477
2801477
2801477
2801477
2801477
455364
2801477
2801477
2686247
238854
2801477
2801477
2686266
2801477
1586714
251749
2801477
2686246
1340810
2801477
444860
2801477
2801477
444860
2801477
2801477
2801477
1493511
2801477
2686245
455364
1586714
2801477
1586714
2801477
2801477
2801477
2801477
2801477
2686246
1586714
2801477
2801477
2801477
2801477
2801477
2801477
2686251
2801477
2801477
2801477
2801477
2801477
2801477
2801477
268746
2801477
2801477
2801477
2801477
2801477
2801477
2801477
2801477
2686246
2801477
2023996
2801477
251749
444860
444860
2801477
2801477
2801477
2686245
2801477
2801477
1586713
2801477
2801477
2801477
2801477
2801477
2801477
2801477
2686245
2023996
2023996
2801477
2801477
2801477
1883367
1586714
2801477
2801477
2801477
754042
2801477
2801477
2801477
2801477
2801477
2801477
2801477
754042
754042
2801477
1815522
251749
869724
2801477
1586714
2686245
2801477
2801477
2801477
2801477
2801477
754042
2801477
2801477
2801477
2801477
251749
455364
455364
2801477
2686251
2801477
754042
455364
2801477
2801477
2686245
2801477
2801477
251749
2686251
2801477
2801477
455364
2801477
2801477
2801477
2801477
2801477
2801477
2801477
2801477
1883367
2801477
2801477
2801477
455364
2801477
2801477
2801477
2801477
2268578
2801477
2801477
2801477
2801477
2801477
2801477
2801477
2801477
2801477
2801477
2801477
2801477
2801477
2801477
2801477
2801477
455364
2801477
1493511
2801477
2801477
2801477
2801477
2801477
2801477
2801477
2801477
180504
2801477
2801477
2801477
444860
455364
2801477
2801477
2801477
2801477
2801477
2801477
2801477
2801477
2686246
2801477
2686245
2801477
2801477
2801477
2801477
2801477
2686251
2801477
2801477
2801477
2801477
2801477
2801477
2801477
2686279
455364
2801477
2801477
2801477
2801477
2801477
2059380
2801477
2801477
2801477
2801477
2801477
2801477
455364
2801477
2686246
2801477
2801477
2686245
2801477
444860
2801477
2801477
2686263
2801477
2801477
753085
2686245
2801477
2801477
2801477
180504
2801477
2801477
756275
2023996
2801477
2801477
2801477
1493511
2801477
2801477
2801477
2801477
2801477
1283077
2686247
1283077
2686246
2801477
2801477
1283077
2801477
2801477
2801477
2801477
1586714
2801477
455364
2801477
180504
2801477
2801477
2686246
2801477
2801477
2801477
2801477
444860
44088
2686246
2801477
2801477
2801477
2801477
2059380
2686245
2801477
2801477
2686246
2801477
2686247
268746
2801477
2686245
2801477
2686246
2801477
2801477
2686246
2801477
2801477
2801477
2801477
2801477
2801477
2801477
2801477
2801477
2801477
2686246
2801477
2686258
2801477
2686246
2801477
2801477
2801477
2801477
2801477
2686245
2027899
2801477
2686245
455364
2686246
2801477
2686246
455364
2801477
2801477
2801477
2686246
2801477
2801477
2801477
1493509
2801477
2801477
2801477
2686245
2686246
1589733
754042
2801477
2801477
2686279
2686245
2801477
2801477
2801477
2686246
251749
2801477
2801477
2801477
2686266
2686247
2801477
2801477
1557034
2801477
2801477
2801477
2801477
2686246
2801477
2686246
2801477
1815522
2686246
2801477
2801477
2801477
2801477
2801477
2801477
2801477
2801477
2801477
2801477
2801477
2801477
2801477
2801477
2801477
2801477
753085
2801477
2686245
2686245
2801477
2801477
754042
2801477
2801477
2801477
2801477
2801477
2801477
2801477
2801477
2801477
2801477
2801477
2801477
1586715
2801477
2801477
251749
2801477
2801477
1557033
455364
2027899
2801477
2801477
2801477
2801477
444860
2801477
2801477
455364
2686279
2801477
2801477
2801477
2686279
2023996
444860
2686246
2801477
2686246
2801477
2801477
2801477
444860
2801477
455364
455364
2801477
2801477
2801477
2801477
2686246
2686246
2801477
244310
2801477
2801477
2801477
2801477
2801477
2801477
2801477
2801477
2801477
2686246
2801477
2801477
455364
2801477
2686266
2801477
2801477
2801477
2801477
2686246
2801477
2801477
2801477
2686246
2801477
2801477
2801477
2801477
1815521
2801477
2686266
2686279
2801477
2801477
2801477
2801477
2801477
2801477
2686245
2801477
2801477
251749
2801477
2801477
2801477
455364
2801477
2801477
1883369
2801477
2801477
1589733
2801477
2801477
2801477
2801477
2801477
2686245
2801477
2801477
444860
2686245
2801477
2801477
2686246
2801477
2801477
2801477
2801477
2801477
455364
2801477
444860
2801477
2801477
2686246
2801477
2801477
1557034
2686279
2801477
2801477
2686246
2801477
2801477
2801477
2801477
2801477
2801477
2801477
2686245
2686246
251749
1557034
2801477
2801477
2801477
2801477
2801477
2801477
2801477
869724
2801477
2801477
2801477
2801477
2801477
2686245
2686246
2686245
2686245
2801477
2686245
2686279
2686246
2686279
2686246
444860
2801477
2686279
2686247
754059
2801477
756275
444860
2801477
444860
2801477
2801477
754042
2801477
2801477
2801477
2801477
2801477
754059
2686246
2686251
2801477
2801477
2801477
444860
2801477
1586714
2801477
2686246
1557034
455364
2801477
2801477
2801477
2801477
2801477
2801477
2801477
251749
2801477
444860
2801477
2801477
2686246
2801477
2686246
2801477
2801477
2801477
2801477
2686246
2801477
2801477
2801477
2801477
2801477
2686246
2801477
455364
2023996
2801477
2686246
2801477
2686246
2801477
2801477
2801477
2801477
2801477
2801477
2686279
2801477
2801477
2686246
2801477
2686246
2801477
2686246
2801477
2801477
2801477
2801477
2059380
2801477
2801477
2686279
2801477
2686246
756275
2801477
2801477
2801477
754042
2801477
2686246
2801477
2801477
2801477
268746
1586714
2801477
2686251
2801477
2801477
2801477
2801477
2801477
2801477
2801477
2801477
2801477
2801477
2801477
2801477
2801477
2801477
2801477
2801477
2686246
2801477
2801477
2801477
2686246
2801477
2801477
2801477
2801477
2686246
2801477
180504
2801477
2801477
2801477
2801477
2686246
2686246
2801477
2801477
2801477
2801477
2801477
2801477
2801477
2801477
2801477
2801477
2686246
2686246
2801477
1340810
2801477
2801477
2801477
2801477
2801477
2801477
2686246
2801477
2801477
2801477
268746
2801477
455364
2801477
2686246
2686251
2801477
2801477
2686246
2801477
455364
1557034
2801477
2801477
2801477
2801477
2686246
754042
2686251
2801477
2801477
1283077
2801477
2686246
2801477
444860
2801477
2801477
2801477
2801477
2801477
455364
268746
2801477
2023996
754042
2801477
2801477
2801477
455364
2801477
2801477
2686246
455364
2801477
2686279
2801477
2801477
2023996
2686246
2801477
444860
2686246
251749
2801477
2801477
2686245
2686279
2686246
180504
2801477
2801477
2801477
2686246
180504
2801477
1883367
180504
2801477
2801477
1586714
754042
268746
2686246
2801477
455364
2686246
1815522
180504
180504
2801477
2686246
2801477
2801477
2801477
251749
2801477
2801477
2801477
180504
2801477
180504
180504
2686246
180504
2686246
2801477
2801477
2686246
2801477
2801477
2801477
2686246
2686246
2686246
2801477
2686246
2686246
2686246
2801477
2686263
2686246
2801477
2801477
2686246
180504
2801477
2801477
2686246
2801477
2801477
2686246
2801477
2686246
2686246
2801477
251749
2686246
2686246
2686246
2801477
2801477
2686246
2801477
2686246
2801477
1883369
2686246
2801477
2801477
180504
2801477
1283077
2686246
2686246
2801477
2686246
2686246
2801477
2686246
2686246
2801477
180504
2801477
2801477
2686246
2801477
2801477
2686246
2801477
2801477
2686246
2686246
2801477
2686246
2686246
2801477
1283076
2686246
2686246
2801477
1283076
1283076
1283076
2801477
2801477
2686246
2686246
2023996
2686279
2801477
2801477
1283076
754059
2686246
1283076
2686246
1283076
1283076
1283076
2023996
1283076
2686246
455364
2686246
2686246
1283076
180504
2801477
2801477
1283076
1283076
2686246
2801477
1474867
2686246
2801477
2686246
2686279
2801477
2801477
2801477
1283076
1283076
2686246
2801477
2686246
2801477
2801477
1283076
1283076
2801477
1283076
2801477
1283076
2801477
1283076
2801477
2686247
2801477
2801477
1283076
1283076
2801477
754059
180504
2686246
1883369
2801477
2801477
2801477
2686246
2686251
455364
2801477
2686246
2801477
2686246
2801477
2801477
2801477
2801477
2801477
2801477
2801477
2801477
2801477
2801477
2801477
2801477
2801477
1883369
2686246
2801477
2801477
2686246
2801477
2801477
444860
1586714
238854
2686246
2686245
2801477
2686246
2801477
2686246
2023996
2686246
2801477
2686246
2801477
2686246
754042
2801477
180504
2801477
2686246
2801477
2686245
444860
444860
2686245
444860
2686246
2686246
2686246
1883369
1586714
2801477
2686246
2686246
2686246
2686246
2801477
2801477
2023996
2801477
2686246
2686246
2801477
2686246
2686246
2801477
2801477
1283077
2686246
2686246
2801477
2801477
2801477
444860
2686246
2801477
2686279
251749
1283077
2686246
754059
2801477
2686246
2686246
2801477
2801477
2801477
2801477
2801477
2686246
251749
2801477
2801477
2801477
2801477
2801477
2801477
2686246
2801477
2686246
2686246
2801477
2686246
2686251
2686246
2801477
2686246
2801477
2801477
2801477
2801477
2023996
2686246
2686246
2686246
251749
2686246
2686246
2801477
2686246
2801477
2686246
2801477
2686246
2801477
2801477
1883367
2023996
2686246
2686246
2686246
2686246
2686246
2686246
2686279
2801477
2686246
2801477
2801477
2686246
2801477
2686246
2686246
2686246
1586714
2686246
2686246
2686246
2686246
2686263
2801477
2686246
2686246
754042
2801477
2686246
2023996
2686246
2686246
2023996
2686246
2686246
2686246
2686246
2686246
1542477
2686246
2801477
1542477
2686246
2686246
2686246
2686246
2801477
2686246
2686246
251749
2801477
2686246
2686246
2686246
2686246
2686246
2801477
2801477
2686246
2801477
2686246
2686246
2686246
2686246
2801477
2686246
2686246
2686246
2686246
2686246
2686246
2801477
2686246
2801477
2686246
2801477
1883367
2023996
2686246
2801477
2801477
2686246
2686246
2686246
2801477
2801477
2686246
444860
2801477
2801477
2801477
180504
1557034
455364
1137745
2686246
2686246
2801477
2686246
2686246
2686246
2686246
1283077
2686246
2686246
2801477
2686246
2801477
2686246
180504
2686246
2686246
2686246
2023996
2686246
2801477
2686246
2686246
2027899
2686246
2801477
2686246
2686246
2801477
2686251
2686246
2686246
2686246
2801477
2686246
2801477
2686246
2801477
1283077
2686246
2801477
2686246
2686246
2686246
2686246
2801477
2686246
2801477
2801477
2801477
2686246
2801477
2686246
455364
2686246
2801477
2686246
2686246
2686246
2686246
2801477
2801477
35345
2686246
1586714
2686246
2686246
2801477
2686279
1474867
2686246
2686246
2686246
455364
2801477
2801477
2686246
2801477
2686246
2686246
2686279
2268578
1557034
2801477
2801477
2686279
2686246
2686246
2801477
35345
754042
2686246
2801477
2686246
2801477
180504
35345
2686246
2686246
2023996
2801477
2801477
2801477
2686246
2801477
2686246
2686246
2686247
1586715
2686246
2686246
2686246
2686246
2801477
2686246
2801477
2686246
2686246
1557034
869662
2801477
2801477
2801477
2801477
2023996
2686246
2801477
2686246
2801477
2686246
2686246
2686246
2686246
2801477
2686246
2801477
2686246
1586714
2686246
2686246
2686246
444860
2801477
2801477
2801477
2801477
2686246
2801477
2686246
2686246
2801477
2801477
2686246
2023996
2801477
2801477
2686246
2801477
1586715
2686246
2686246
2686246
2686246
2801477
2686246
2686246
2686246
2801477
2801477
2801477
2686246
2686246
2801477
2801477
2801477
2801477
2686246
2686246
2801477
2801477
2801477
2686246
2801477
2801477
2023996
2686246
2023996
2686246
2686246
2686246
2801477
2686246
2686246
2801477
2686246
2686246
2686246
2686246
2801477
2686246
2686246
2686246
2686277
2686246
455364
2801477
2801477
2801477
2801477
2801477
2686246
2801477
2686246
2801477
2801477
2686246
2801477
2801477
2686246
2686246
2686246
2801477
2686246
2686246
2801477
2801477
2801477
2801477
2686246
2686246
2686246
2686279
180504
2686246
2686246
2686246
2686246
2801477
455364
2686246
2686246
2801477
2801477
1586715
2686246
2801477
2686246
2801477
2801477
2686246
2801477
2801477
2686246
2801477
2686246
2801477
2801477
2686246
2801477
2686246
2686246
2686246
2686246
2686246
2801477
2801477
2801477
2801477
2686246
2686246
2801477
2686246
2801477
2801477
2801477
2023996
2801477
2686246
2801477
2686246
2686246
2801477
2686246
2686246
251749
2801477
2801477
2801477
2801477
2686246
2686246
2686246
1493514
2801477
869724
2801477
2686246
2801477
455364
2801477
2686246
2686246
2686266
444860
2686246
2686246
2801477
2686246
2686246
2686246
2686246
2801477
2801477
687803
2686246
2801477
2686246
2686246
2686246
2686246
1493514
455364
756275
869724
180504
294631
1493514
754042
444860
2686246
869724
2686246
2686246
2801477
2686246
2801477
2686246
2686246
2686246
2686246
2801477
238854
2686246
2801477
1493514
2801477
869724
2686246
2801477
2686246
2686246
2686246
2686246
455364
1283077
2686246
2686246
2686246
869724
2686279
2801477
2801477
2686246
180504
2686246
1493514
2801477
2686246
2686246
2686246
2686246
2686246
2686246
2686246
2801477
2686246
2686246
2801477
2686246
2686246
2686246
2686246
1586713
2686246
2686246
2686246
2686246
2686246
2801477
2686246
2686246
2686246
2686246
2686246
2686246
2686246
2801477
2801477
2686246
2801477
444860
2686246
2686246
2686246
2801477
2686246
2023996
1586715
2686246
2686246
2686246
2686246
2801477
2801477
2686246
2686246
2686246
2686279
2686246
2686246
2686246
2801477
2801477
444860
2801477
2801477
180504
2686246
2686246
2686246
2801477
1493511
2686246
2686246
1168478
2801477
2801477
2686277
251749
2801477
1283077
2686246
2801477
444860
2801477
2686246
2686246
2801477
2686246
2801477
2801477
2686246
2686246
2686246
2801477
2801477
2686246
2686246
251749
2686246
2686246
1586714
2801477
2801477
2801477
2686246
2686246
2686279
2801477
445688
2686246
2801477
2801477
2686246
2801477
2801477
2801477
445688
2801477
2686246
2686246
2801477
2686246
2686246
2686246
2801477
2686246
2686246
1586714
2801477
2686246
2686246
2686246
2686246
2686246
1589733
445688
2686246
2686246
2801477
2801477
2801477
2801477
2686246
2686246
2801477
2686246
1589733
2801477
1557034
2686245
2686246
2686246
2686245
2801477
2686246
2686246
2023996
2686246
180504
2686246
2686246
2686246
2686246
2686246
2686246
1557034
2801477
2686246
2686246
2686245
2686246
2801477
2801477
754042
2801477
10689
2801477
2686246
2801477
2801477
2686279
2801477
2686246
2801477
1493514
2686246
2801477
2686246
2801477
2686246
2801477
2801477
455364
2801477
2801477
455364
2801477
2801477
2686246
2686246
2686246
2686246
2801477
444860
754059
2686246
2686246
2686246
2686246
2801477
2801477
180504
2686246
2686246
2686246
2686246
2686246
2686246
2686246
2686246
2686279
2801477
2686246
2686246
2801477
2686246
1493511
2686246
2801477
2801477
2686246
2801477
180504
2686246
2686246
2686246
2686246
2686246
2801477
2801477
687803
2686246
2686246
2686246
2686246
2801477
642926
2801477
2801477
2686246
2686246
2686246
2801477
2686246
2801477
2686246
2801477
2686246
2801477
2686246
2686246
2686246
2801477
2801477
2801477
2801477
2801477
2801477
251749
2686246
2686246
455364
2801477
2686246
2686246
2801477
444860
238854
2801477
2801477
2801477
2801477
2686246
2686246
2686246
2801477
2801477
445688
2801477
2801477
2801477
2686246
2686246
2801477
2801477
2801477
2686246
1589733
2686246
2686246
2801477
2686246
2686246
2686246
2686246
2801477
2686246
2686246
2686246
2801477
2686246
444878
2686246
2686246
180504
2686246
2801477
2801477
2686246
2686246
2686245
2686246
2686246
2801477
2686246
2686246
2801477
2801477
2686246
2686279
2801477
2686246
444860
2801477
2801477
180504
2686279
1283077
2801477
2801477
2686246
2801477
2686246
2686246
180504
2801477
2801477
2801477
2686246
2801477
2686246
2686246
444860
2686246
180504
2686279
2801477
2801477
2801477
2686246
2686246
2801477
2801477
2686246
2801477
2686246
2801477
2801477
2686246
2686246
2686246
2801477
2686246
2801477
1283077
2686246
2801477
2686246
2801477
2801477
2801477
754042
2686246
2686246
2686246
2801477
2686246
2686246
180504
2801477
2801477
2801477
2801477
2686246
2686246
2686246
2686246
2686246
2801477
2686246
2686246
2686246
2686246
180504
2686246
2686246
2686246
444860
2686246
2801477
2686246
2686245
2686246
2686246
2801477
2686246
2686246
2686246
2686246
1283077
2686279
2801477
948870
2686246
2801477
2801477
2801477
2801477
455364
2801477
2686246
2801477
2686246
180504
2801477
2801477
754042
244310
2686246
180504
2801477
2686246
2686246
2686246
2686246
2801477
2686246
180504
2686246
2686246
2686246
2686246
2801477
2801477
2686246
2686246
2801477
2686246
869724
2686246
2801477
2801477
2686246
2686246
180504
2801477
2801477
2801477
2023996
2686246
2801477
2686246
2801477
2801477
2686246
2801477
1589733
2801477
2686246
1883369
2801477
2801477
2686246
2801477
2801477
2801477
2686246
2686246
2801477
1586714
2686246
2686246
2686246
2686246
2801477
2801477
455364
2686245
2686246
2801477
2686245
2686246
2686246
2686246
2686246
2801477
2686246
2686246
2686246
2686245
2686246
2801477
2801477
2686246
2801477
2686246
2801477
2801477
2686246
2686246
2801477
2686245
2801477
2686246
2686246
2686246
2686246
2686246
2801477
2686246
2686246
2801477
2801477
2686246
2801477
1557034
2801477
2686246
444860
2023996
2801477
2686246
2686246
2801477
2686246
2686245
2801477
1283077
2686246
2801477
2686246
455364
2686246
2510464
2801477
2801477
2686246
2686246
2686246
2801477
2686279
2801477
2801477
2801477
180504
2801477
2686246
2023996
2801477
2801477
2686246
2686246
2686246
2686246
2686246
2686246
2686246
2801477
2801477
2686279
2686246
2686246
2801477
2686246
2801477
2686246
2801477
2801477
2801477
2686246
2023996
2686246
2686246
2686279
2801477
2686246
251749
2268578
2686246
2801477
2686246
2801477
2801477
2801477
2801477
2801477
2686246
2686246
2801477
2023996
251749
444860
2686279
2686246
2801477
2686246
2686246
2686247
2801477
2801477
2686246
2686246
2801477
2686246
2686246
2801477
2686246
2686246
2801477
2801477
2686246
1283077
1283077
2801477
2801477
2801477
455364
2801477
2686246
2686246
2686246
2686246
889951
2686246
2801477
2686246
2801477
2686246
2510464
2686246
2686246
2686246
2801477
1332145
1283077
2801477
1283077
2801477
2801477
2686279
2801477
2686246
2686246
2686246
2801477
2268578
2801477
2801477
2686246
2801477
455364
2023996
2686246
1586715
2686246
2686246
2801477
2686246
2686246
754042
2686246
2686246
1586715
2686246
2801477
2686246
2801477
2686246
2686246
2801477
2686246
2023996
2801477
2686246
455364
2686246
2686246
2801477
2686246
2801477
444860
2686246
2801477
2686246
2686246
2801477
2801477
2686246
2686246
2801477
2801477
2801477
2686246
2686246
2686246
2801477
2801477
2686246
2686246
2801477
2686246
455364
2686246
455364
2686246
2686246
2801477
2686246
2686246
2801477
2801477
2686246
251749
2801477
2801477
2686246
2801477
2686246
1883369
2801477
2686246
2686279
444860
2801477
2686246
2801477
2686279
2686246
444860
2023996
2801477
2801477
180504
2686246
2801477
2801477
2801477
445684
2686246
2686246
2023996
2801477
2686246
268746
2686246
2801477
2686246
2801477
2686246
2801477
2686246
2686246
251749
2801477
2801477
2801477
180504
2686246
2801477
2801477
2801477
2686246
2801477
2686246
2686246
2686246
2801477
2686247
2686246
1332145
754059
2801477
2801477
2801477
2023996
2801477
2686246
2686246
753085
2023996
948071
2686246
444860
2686246
2686247
2801477
251749
2801477
2801477
2801477
2801477
2686246
2801477
180504
2686246
2801477
2686246
2801477
2801477
2686246
2686246
2686246
2686246
2686246
2801477
2686246
2686246
2686246
2686246
2801477
753085
444860
2801477
2686279
2801477
2686245
2686246
2686279
2801477
2686245
2686246
2686246
2801477
2801477
2686246
2686246
2801477
2686246
2686246
2686246
444860
2686246
2686246
2801477
2686246
2686279
455364
455364
2686246
2686246
2801477
455364
754042
2686246
2801477
2801477
2686246
444860
2686246
2686246
2686246
2686246
180504
2686246
2801477
2686246
2801477
2801477
2686246
2686246
2801477
2801477
2801477
2801477
2801477
2801477
2686279
2801477
2801477
2686246
2801477
2801477
2801477
2686246
2801477
2686246
2801477
2686246
2801477
2686246
2686246
2686246
2801477
2801477
2686246
2801477
2686246
180504
2023996
455364
2801477
2686246
268746
2686246
2686246
2686246
2686246
2686246
444860
2801477
2023996
2686246
2801477
2686246
2801477
2801477
2686246
2801477
2801477
2801477
2686246
2801477
2510464
2059380
2801477
2801477
2801477
753085
2686246
2686246
2801477
2686246
2801477
2801477
2059380
2801477
2686246
2801477
2801477
2801477
2686246
2686246
2801477
2686279
2686246
2801477
2686246
2686246
2686246
445685
2801477
2686246
2801477
2686246
1586715
2801477
2686246
2023996
2686246
2801477
2686247
251749
2801477
2801477
2801477
2686246
2801477
2686246
2801477
2801477
2801477
2686279
455364
2801477
2686246
2023996
2801477
2801477
444860
444860
268746
948870
756275
2801477
2686279
1474867
1283077
2801477
2801477
251749
2686246
2801477
2801477
2686246
2801477
2268578
2686279
2686246
2686246
2801477
2686246
2801477
2686246
2686279
2686246
2801477
2801477
2686251
2801477
1283077
2686246
2686246
2801477
2023996
2801477
2686246
2801477
444860
455364
2801477
2686246
2686246
2686246
2801477
2686246
2686246
2801477
2801477
2801477
2686246
2686246
2686246
2801477
2801477
2023996
754042
251749
2686246
2686246
2801477
2801477
2801477
2801477
2686246
2801477
2686246
2686246
2801477
2686246
2801477
2801477
2686246
2686246
2686246
2801477
2686246
2686246
2686246
2686246
2801477
2801477
2801477
251749
2686279
2801477
2801477
2801477
2686279
2023996
2801477
2686246
2801477
2801477
2801477
2686246
2686246
2801477
2686279
2801477
2686246
2686246
2686279
2686279
2686246
2510464
2801477
2801477
2801477
2801477
2686246
2686246
2686246
2686246
444860
180504
2801477
2801477
180504
2801477
2801477
2801477
180504
2686246
2686251
2686277
180504
180504
180504
2686279
2686246
2801477
2801477
2686246
180504
444860
180504
2686246
2801477
753085
2686246
2801477
251749
2801477
2686246
2801477
180504
2801477
2686246
2686279
2801477
2686246
2801477
2686251
2686246
2801477
2801477
444860
2268578
2686246
2686246
2801477
180504
2801477
2686247
180504
180504
2023996
2801477
2686279
2686246
2686246
2686279
2686246
2686279
2801477
180504
2100130
2686246
2686246
2686246
180504
242527
2686246
2801477
909297
1283076
1283076
1283076
2686246
2801477
2686246
2686246
1283076
2686246
2686246
444860
2801477
1283076
180504
1557034
2686246
2686246
2686246
2801477
1283076
1557034
1283076
2801477
2801477
2801477
2182403
2023996
2801477
1283076
294631
2686251
2801477
1283076
2686246
2801477
1283076
455364
1283076
2023996
1283076
2801477
2686251
754059
2686251
2801477
2686246
2801477
1283076
2686251
2686246
2801477
948071
2686246
2686246
1283076
2686251
1283076
2801477
2801477
1283076
2268578
1557033
2801477
2686246
2686246
2686246
2801477
2686251
2686246
1283076
2686251
1283076
1557033
1283076
2801477
455364
1283076
1283076
1283076
2801477
2686246
2023996
1283076
444860
2182403
2023996
2023996
2801477
2686266
2801477
2686273
2801477
2686245
2686246
2686246
2801477
2686246
2023996
445688
2801477
2801477
2801477
2801477
2801477
2801477
2023996
2801477
2686246
2801477
2801477
2801477
2686246
2686279
2686246
2801477
2801477
2686246
2686279
444860
2801477
2686246
2686246
2686279
2801477
445688
2801477
2801477
2686279
2686246
2686246
2686246
2801477
2686277
2686246
2686266
2801477
2801477
2686246
2801477
2801477
2801477
2686279
2801477
1493511
2801477
2686246
2686246
445688
2686246
2686246
2686279
2023996
2686246
2801477
2686279
2686246
2686246
444860
2686246
2801477
2686246
2686246
180504
2686246
1557033
2686246
2686246
455364
2686246
2686246
2686263
2686246
2686246
2510464
2686246
2686246
2801477
754042
2510464
2801477
2686246
455364
2686246
2686246
2801477
268746
2686246
2686246
2686246
444860
2686246
444860
2801477
2801477
268746
2686279
2801477
180504
2801477
2686247
2686246
2801477
2801477
2686246
1883369
2686246
455364
2686279
2801477
756275
2801477
2686246
2801477
2686246
2686246
2686246
2801477
2801477
444860
2801477
2686246
2801477
2686247
2686246
2686246
2686279
2686246
2686246
2686246
1815522
2686246
2801477
2686246
2686246
2686246
180504
2801477
2801477
2801477
2686246
2801477
2801477
445686
2801477
2686279
2686246
2801477
2686246
2801477
2801477
2801477
2686246
444860
455364
1283077
35345
444860
2801477
2801477
2686251
2801477
2801477
754059
2801477
2686246
2686246
2686246
2686246
1557033
2801477
2686246
2686246
2801477
2801477
2801477
294631
2801477
444860
1589733
2801477
1033977
2686246
2801477
2801477
1557034
2801477
2801477
2801477
2801477
2686246
2801477
2686246
2686279
2686246
2801477
2686246
2686251
1283076
2801477
2801477
2686246
455364
2686246
2686246
2801477
2801477
1283076
2801477
2686251
2686246
2023996
2801477
1283076
2801477
2801477
2686246
2801477
2686251
2686251
444860
444860
2801477
2801477
1283076
2686246
1283076
2686246
1589733
444860
2801477
2686246
444860
2801477
455364
2801477
2801477
2801477
2686246
1283077
2801477
1283076
1283076
1283076
251749
2686246
2801477
2801477
445688
2686251
2686246
1283076
2686246
1283076
2801477
2686279
1283076
2740801
1283076
1283076
2801477
455364
2740801
2801477
2686246
2801477
2686246
2801477
251749
2686246
2801477
2801477
2686246
2801477
251749
2686246
2686245
1283077
2686246
2686246
444860
2801477
2686246
2686246
2801477
2801477
2801477
2801477
2686246
2686251
2686279
2801477
2686246
2801477
2801477
2686246
2801477
2801477
2801477
2686246
2801477
2801477
2686247
2801477
2801477
2686246
1883366
268746
2686246
2801477
2686246
2801477
2801477
2801477
444860
2686246
2023996
2686246
2801477
2801477
2801477
2801477
2686246
2801477
2801477
444860
2686246
2686246
2801477
2801477
2801477
268746
1586714
2801477
2686247
2686246
2686246
180504
2801477
2686273
2510464
2686279
2801477
2686246
444860
2686246
251749
2686247
2023996
444860
2686246
753085
2801477
2801477
2801477
444860
2801477
2801477
2801477
2801477
444860
2801477
2801477
2686246
2686246
2801477
2801477
2801477
2801477
268746
2801477
2801477
2801477
2801477
2023996
948870
869662
1589733
2686246
2686246
2268578
2801477
2510464
2801477
444860
948870
2801477
2801477
2686246
1586714
1586715
754037
2801477
2686251
2801477
2801477
2686246
2801477
2801477
2801477
1586714
455364
268746
2801477
1283076
2801477
2686246
2686246
2686246
2023996
2686246
2801477
1283076
1283076
455364
2801477
1586714
2801477
1283076
1283076
455364
1283076
1283076
1283076
2801477
2740801
1283076
948870
754059
455364
2686246
455364
294631
753085
2686246
2801477
1283076
1283076
2686246
2686246
2686246
2686246
2801477
268746
180504
180504
455364
2801477
2801477
2801477
2686279
1557034
1283076
1283076
889953
889953
1283076
2801477
2686246
2801477
2686246
2686246
2686246
2686273
2801477
2801477
1033977
2801477
2801477
2801477
2686246
2686247
2686246
2686247
2801477
251749
2801477
2801477
2801477
2801477
2801477
2801477
2686246
2801477
2686279
2686246
2686273
2686246
2801477
2801477
2023996
2686247
2023996
2801477
2801477
2059380
2686279
2801477
2801477
455364
2686273
2801477
2686246
2801477
2686279
2686246
754041
2686246
2023996
2686246
2801477
2801477
2801477
2510464
2686247
2686279
455364
2801477
2686279
2686246
2686279
2686245
2686246
455364
2801477
2801477
2801477
2801477
2686246
2801477
2510464
455364
2686246
2686246
444860
1033977
2801477
2686246
754042
1557034
180504
2686279
2801477
2801477
2801477
2801477
1283076
1033977
2686246
1557034
1283076
2686246
1283076
455364
2801477
180504
1283076
2686246
2801477
1283077
444860
2023996
2801477
2686246
1283076
444860
2686246
1283076
2801477
2801477
1283076
180504
1283076
2686246
2686246
2686246
2801477
2686246
2686246
2686247
2801477
1283076
2686247
1589733
754042
445688
444860
1283076
1283077
444860
2801477
2801477
2686246
2801477
2801477
1589733
2686246
2801477
1557034
2801477
2686246
1883366
1589733
2801477
294631
2686246
2801477
2801477
1283076
2686279
455364
1283076
2801477
2801477
2686246
2686246
2686246
2686251
2801477
2801477
444860
2686246
444860
2801477
2023996
1557033
2268578
2801477
2686246
2686246
2801477
2801477
2686246
2801477
2686246
2686246
2686246
2801477
2801477
2801477
2801477
2686246
2801477
2686246
2801477
1278479
2686246
2801477
2686246
2801477
444860
2301529
2686246
1033977
2686279
2686246
2023996
2686246
2801477
2801477
2686246
2801477
2801477
2686246
2801477
2686246
2801477
2801477
2686273
2801477
2801477
2801477
2686246
2686279
2801477
2686246
251749
2686246
2801477
2686246
2801477
455364
180504
2686279
2686279
2686273
2801477
2801477
2686246
2686273
2801477
754042
2801477
2801477
2801477
756275
2268578
2801477
444860
2801477
1557034
2801477
2801477
2686247
2686246
180504
444860
2686246
444860
2686246
2686246
2686279
2801477
756275
2801477
2801477
2686279
2801477
455364
2686246
444860
2686251
2801477
2686246
2801477
2686246
2801477
2686273
268746
2686247
2686247
2801477
2801477
2801477
2801477
2801477
2801477
455364
444860
2801477
2801477
1883369
1283076
444860
2801477
2801477
2801477
2686246
2059380
2686246
2023996
2801477
1283076
2801477
2801477
2801477
1283076
2059380
2686246
2801477
753085
2801477
889953
2801477
2801477
2801477
1883369
251749
2801477
1283076
1283076
1283076
2686246
2801477
2686246
2801477
1283076
180504
2801477
2801477
2801477
2801477
2801477
889953
1589733
444860
2801477
2686246
2801477
2801477
2686279
2686246
2801477
2686279
754042
1586715
444860
2801477
2801477
2686279
2801477
1283077
2686251
180504
2801477
2801477
2023996
2510464
1586714
2801477
2801477
2801477
2686263
2801477
2510464
2686246
2686246
756275
756275
2686251
180504
251749
444860
2686246
444860
2686246
180504
754042
2801477
2686251
2801477
1493511
2023996
2510464
2801477
2801477
2686246
2686246
2686251
2801477
2801477
754042
2686246
2686246
754042
2686251
2686251
2801477
444860
1283077
2801477
2801477
2686246
889953
2686246
455364
2686246
2686246
2801477
889953
2686279
756275
2686246
2686246
2801477
2801477
2801477
2686246
2801477
2801477
444860
2801477
2686279
251749
2801477
2686246
2686279
2686273
2023996
2801477
444860
754059
2686246
2801477
444860
2801477
2801477
2686246
1815522
2801477
2023996
2023996
2686279
2686246
1557033
2023996
180504
889953
2686279
2801477
2023996
2801477
2801477
2686273
2686246
2686279
444860
2686246
268746
2801477
2023996
754042
889953
2023996
2023996
2686246
2686251
2801477
2801477
2686247
2686251
2686246
2801477
2801477
294631
268746
2801477
2023996
2686246
2510464
2801477
251749
2801477
2023996
2023996
2801477
2801477
294631
2801477
2023996
754042
2686247
2023996
1589733
1589733
2023996
251749
2686247
2023996
2023996
2023996
2023996
180504
2023996
2686246
2023996
2686246
2801477
2686246
2686246
2686251
2801477
1883369
2023996
2686246
2801477
444860
2023996
444860
2801477
2801477
2023996
2686246
2801477
2686246
2686246
754042
2801477
2801477
2801477
2801477
2801477
2801477
2686273
268746
2801477
444860
2686251
2801477
445688
2023996
2686246
2801477
2801477
1586715
2801477
2801477
2686246
2801477
180504
2801477
2801477
2801477
2801477
889956
2801477
2268578
2801477
445688
754042
2686251
2686266
2268578
2801477
2686246
2686246
2801477
2686251
455364
2686279
2801477
2801477
2686246
2023996
2686246
1542477
2686246
2686246
2801477
2801477
2801477
2801477
2686246
2801477
1557034
2023996
2801477
2686246
755272
2686251
2801477
2686246
2268578
2801477
2801477
2686246
1542477
2801477
2268578
2686273
2801477
2686246
2743781
2801477
2801477
2686246
2686246
2686246
444860
2686246
2686246
444860
2686279
294631
2268578
2801477
2801477
2686246
2801477
444860
2686273
444860
2801477
2801477
2801477
2686246
2686246
2801477
2686246
889953
2801477
2801477
2801477
2686279
444860
2686246
2510464
2801477
2686246
2801477
2686246
2801477
2686246
2686246
2686246
2023996
2686279
455364
1883369
2686246
2801477
2686246
2686246
1283076
445688
1283076
1283076
1283076
1283076
1283076
1283076
1283076
1283076
1283076
1283076
1283076
1283076
1283076
1283076
1283076
1283076
1283076
1283076
1283076
1283076
1283076
1283076
1283076
1283076
1283076
1283076
1283076
1283076
1283076
1283076
1283076
1283076
1283076
1283076
1283076
1283076
1283076
2023996
1283076
1283076
1283076
1283076
1283076
1283076
1283076
1283076
1283076
1283076
1283076
35345
1283076
1283076
1283076
1283076
1283076
1283076
1283076
1283076
1283076
1283076
1283076
1283076
1283076
1283076
1283076
1283076
1283076
1283076
1283076
1283076
1283076
1033977
1283076
1283076
1283076
1283076
1283076
1283076
1283076
1283076
1283076
1283076
1283076
1283076
1283076
1283076
1283076
1283076
1283076
2740801
1283076
1283076
1283076
1283076
1283076
1283076
2686246
1283076
1283076
1283076
2801477
1283076
1283076
1283076
1283076
1283076
1283076
1283076
1283076
1283076
1283076
1283076
1283076
1283076
1283076
1283076
1283076
1283076
1283076
1283076
1283076
1283076
1283076
1283076
1283076
1283076
1283076
1283076
1283076
1283076
1283076
1283076
1283076
1283076
1283076
1283076
1283076
1283076
1283076
1283076
1283076
1283076
1283076
1283076
1283076
1283076
1283076
1283076
1283076
2801477
1283076
1283076
1283076
1283076
1283076
1283076
1283076
1283076
1283076
1283076
1283076
1283076
1283076
1283076
1283076
1283076
1283076
1283076
1283076
1283076
1283076
1283076
1283076
2801477
1283076
1283076
1283076
1283076
1283076
1283076
1283076
1283076
1283076
1283076
1283076
1283076
1283076
2801477
1283076
1283076
1283076
1283076
1283076
1283076
1283076
1283076
1283076
1283076
1283076
1283076
1283076
1283076
1283076
1211643
1283076
1283076
1283076
1283076
1283076
1283076
1283076
1283076
1283076
1283076
1283076
1283076
1283076
1283076
1283076
1283076
1283076
1283076
1283076
1283076
1283076
1283076
1283076
1283076
1283076
1283076
1283076
1283076
1283076
1283076
1283076
1283076
1283076
2801477
1283076
1283076
1283076
1283076
1283076
1283076
1283076
2059380
1283076
1283076
1283076
2686251
1283076
1283076
1283076
1283076
1283076
1283076
1283076
1283076
1283076
1283076
754037
1283076
1283076
1283076
1283076
1283076
1283076
1283076
1283076
1283076
1283076
1283076
1283076
1283076
1283076
1283076
1283076
1283076
1283076
1283076
1283076
1283076
1283076
1283076
1283076
1283076
1283076
1283076
1283076
1283076
1283076
1283076
1283076
1283076
1283076
1283076
1283076
1283076
1283076
2801477
1283076
1283076
1283076
1283076
1283076
1283076
1283076
1283076
1283076
1283076
1283076
1283076
1283076
1283076
1283076
1283076
1283076
1283076
1283076
1283076
1283076
1283076
1283076
1283076
1283076
1283076
1283076
1283076
2801477
1283076
1283076
1283076
1283076
1283076
1283076
1283076
1283076
1283076
1283076
1283076
1283076
1283076
1283076
1283076
1283076
1283076
1283076
1283076
1283076
1283076
1283076
1283076
1283076
1283076
1283076
1283076
1283076
1283076
1283076
1283076
2686251
1283076
1283076
1283076
1283076
1283076
1283076
1283076
1283076
1283076
1283076
1283076
1283076
1283076
1283076
1283076
1283076
1283076
1283076
1283076
1283076
1283076
1283076
1283076
1283076
1283076
1283076
1283076
1283076
1283076
1283076
1283076
1283076
1283076
1283076
1283076
1283076
1283076
1283076
1283076
1283076
1283076
1283076
1283076
1283076
1283076
1283076
1283076
1283076
1283076
1283076
1283076
1283076
1283076
1283076
1283076
1283076
1283076
1283076
1283076
1283076
1283076
1283076
1283076
1283076
1283076
1283076
1283076
1283076
1283076
1283076
1283076
1283076
1283076
1283076
1283076
1283076
1283076
1283076
1283076
1283076
1283076
1283076
1283076
1283076
1283076
1283076
1283076
1283076
1283076
1283076
1283076
1283076
1283076
1283076
1283076
1283076
1283076
1283076
1283076
1283076
1283076
1283076
1283076
1283076
1283076
1283076
1283076
1283076
1283076
1283076
1283076
1283076
1283076
1283076
1283076
1283076
1283076
1283076
1283076
1283076
1283076
1283076
1283076
1283076
1283076
1283076
1283076
1283076
1283076
1283076
1283076
1283076
1283076
1283076
1283076
1283076
1283076
1283076
1283076
1283076
1283076
1283076
1283076
1283076
1283076
445688
1283076
1283076
1283076
1283076
1283076
1283076
1283076
1283076
1283076
1283076
1283076
1283076
1283076
1283076
1283076
1283076
1283076
1283076
1283076
1283076
1283076
1283076
1283076
1283076
1283076
1283076
1283076
1283076
1283076
1283076
1283076
2686246
1283076
1283076
1283076
1283076
1283076
1283076
1283076
1283076
1283076
1283076
1283076
1283076
1283076
1283076
1283076
1283076
1283076
1283076
1283076
1283076
1283076
1283076
1283076
1283076
1283076
1283076
1283076
1283076
1283076
1283076
1283076
1283076
1283076
1283076
1283076
1283076
1283076
1283076
1283076
1283076
1283076
1283076
1283076
1283076
1283076
1283076
1283076
1283076
1283076
1283076
1283076
1283076
1283076
1283076
1283076
1283076
1283076
1283076
1283076
1283076
1283076
1283076
1283076
1283076
1283076
1283076
1283076
1283076
1283076
1283076
1283076
1283076
1283076
1283076
1283076
1283076
1283076
1283076
1283076
1283076
2686246
1283076
1283076
1283076
2801477
1283076
1283076
1283076
1283076
1283076
1283076
1283076
1283076
1283076
1283076
1033977
1283076
1283076
1283076
1283076
1283076
1283076
1283076
1283076
1283076
1283076
1283076
1283076
2023996
1283076
1283076
1283076
1283076
1283076
1283076
1283076
1283076
1283076
1283076
1283076
1283076
1283076
1283076
1283076
1283076
1283076
1283076
1283076
1283076
1283076
1283076
1283076
1283076
753085
1283076
1283076
1283076
1283076
1283076
1283076
1283076
1283076
1283076
1283076
1283076
1283076
1283076
1283076
1283076
1283076
1283076
1283076
1283076
1283076
1283076
1283076
1283076
1283076
1283076
1283076
1283076
1283076
1283076
1283076
1283076
1283076
1283076
1283076
1283076
1283076
1283076
1283076
1283076
1283076
1283076
1283076
1283076
1283076
1283076
1283076
1283076
1283076
1283076
1283076
1283076
1283076
1283076
1283076
2801477
1283076
1283076
1283076
1283076
1283076
1283076
1283076
1283076
1283076
1283076
1283076
1283076
1283076
1283076
1283076
1283076
1283076
1283076
1283076
1283076
1283076
1283076
1283076
2801477
1283076
1283076
1283076
1283076
1283076
1283076
1283076
1283076
1283076
1283076
1283076
1283076
1283076
1283076
1283076
1283076
1283076
1283076
1283076
1283076
1283076
1283076
2801477
1283076
1283076
1283076
1283076
1283076
1283076
1283076
1283076
1283076
1283076
1283076
1283076
1283076
1283076
1283076
1283076
1283076
1283076
1283076
1283076
1283076
1283076
1283076
1283076
1283076
1283076
1283076
1283076
1283076
1283076
1283076
1283076
1283076
1283076
1283076
1283076
1283076
1283076
1283076
1283076
1283076
1283076
1283076
1283076
1283076
1283076
1283076
1283076
1283076
1283076
1283076
1283076
1283076
1283076
1283076
1283076
1283076
1283076
1283076
1283076
1283076
1283076
1283076
1283076
1283076
445688
1283076
1283076
1283076
1283076
1283076
1283076
1283076
1283076
1283076
1283076
1033977
1283076
1283076
1283076
1283076
1283076
1283076
1283076
1283076
1283076
1283076
1283076
1283076
1283076
1283076
1283076
1283076
1283076
1283076
1283076
1283076
1283076
1283076
1283076
1283076
2801477
1283076
1283076
1283076
1283076
1283076
1283076
1283076
1283076
1283076
1283076
1283076
1283076
1283076
1283076
1283076
1283076
1283076
2801477
1283076
1283076
2801477
1283076
1283076
1283076
1283076
1283076
1283076
1283076
1283076
1283076
1283076
1283076
1283076
1283076
1283076
1283076
1283076
1283076
1283076
1283076
1283076
1283076
1283076
1283076
1283076
1283076
1283076
1283076
1283076
1283076
1283076
1283076
1283076
1283076
1283076
1283076
1283076
1283076
1283076
1283076
1283076
1283076
1283076
1283076
1283076
1283076
1283076
180504
1283076
1283076
1283076
1283076
1283076
1283076
1283076
1283076
1283076
1283076
1283076
1283076
2023996
1283076
1283076
1283076
1283076
1283076
1283076
1283076
1283076
1283076
1283076
1283076
1283076
1283076
1283076
1283076
1283076
1283076
444860
1283076
1283076
1283076
1283076
1283076
2686246
1283076
1283076
1283076
1283076
1283076
1283076
1283076
1283076
1283076
1283076
1283076
1283076
1283076
1283076
1283076
1283076
1283076
1283076
1283076
1283076
1283076
1283076
1283076
1283076
1283076
1283076
1283076
1283076
1283076
1283076
1283076
1283076
1283076
1283076
1283076
2686245
1283076
1283076
1283076
1283076
1283076
1283076
1283076
1283076
1283076
1283076
1283076
1283076
1283076
2801477
1283076
1283076
1283076
1283076
1283076
1283076
1283076
1283076
1283076
1283076
1283076
1283076
1283076
1283076
1283076
1283076
1283076
1283076
1283076
1283076
1283076
1283076
1283076
1283076
1283076
1283076
1283076
1283076
1283076
1283076
1283076
1283076
1283076
1283076
1283076
1283076
1283076
1283076
1283076
1283076
1283076
1283076
2686247
1283076
1283076
1283076
1283076
1283076
1283076
1283076
1283076
1283076
1283076
1283076
1283076
1283076
1283076
1283076
1283076
1283076
1283076
1283076
1283076
1283076
1283076
1283076
1283076
1283076
1283076
1283076
1283076
1283076
1283076
1283076
1283076
1283076
1283076
1283076
1283076
1283076
1283076
1283076
1283076
1283076
1283076
1283076
1283076
1283076
1283076
1283076
1283076
1283076
1283076
1283076
1283076
2801477
1283076
1283076
1283076
1283076
1283076
1283076
1283076
1283076
1283076
1283076
1283076
1283076
1283076
1283076
1283076
1283076
1283076
1283076
1283076
251749
1283076
1283076
1283076
1283076
1283076
1283076
1283076
1283076
1283076
1283076
1283076
1283076
1283076
1283076
1283076
1283076
1283076
1283076
1283076
1283076
1283076
1283076
1283076
1283076
1283076
1283076
1283076
1283076
1283076
1283076
1283076
1283076
1283076
1283076
1283076
1283076
1283076
1283076
1283076
1283076
1283076
1283076
1283076
1283076
1283076
1283076
1283076
1283076
1283076
1283076
1283076
1283076
1283076
1283076
1283076
1283076
1283076
445688
1283076
1283076
1283076
1283076
1283076
1283076
1283076
1283076
251749
1283076
1283076
1283076
1283076
1283076
1283076
1283076
1283076
1283076
1283076
1283076
1283076
1283076
1283076
1283076
1283076
1283076
1283076
1283076
1283076
1283076
1283076
1283076
1283076
1283076
1283076
1283076
1283076
1283076
1283076
1283076
1283076
1283076
1283076
1283076
1283076
1283076
1283076
1283076
1283076
2510464
1283076
1283076
1283076
1283076
1283076
1283076
2801477
1283076
1283076
1283076
1283076
1283076
1283076
1283076
1283076
1283076
1283076
1283076
1283076
1283076
1283076
1283076
1283076
1283076
1283076
1283076
1283076
1283076
1283076
1283076
1283076
1283076
1283076
1283076
1283076
1283076
1283076
2686246
1283076
1283076
1283076
1283076
1283076
1283076
1283076
1283076
35345
1283076
1283076
1283076
1283076
1283076
1283076
1283076
1283076
1283076
1283076
1283076
1283076
382262
1283076
1283076
1283076
1283076
1283076
1283076
1283076
1283076
2801477
1283076
1283076
1283076
1283076
2686246
1283076
1283076
1283076
1283076
1283076
1283076
1283076
1283076
1283076
1283076
1283076
1283076
1283076
1283076
1283076
1283076
1283076
1283076
1283076
1283076
1283076
1283076
1283076
1283076
1283076
1283076
1283076
1283076
1283076
1283076
1283076
1283076
1283076
1283076
1283076
1283076
1283076
1283076
2801477
1283076
1283076
1283076
1283076
1283076
1283076
1283076
1283076
1283076
1283076
1283076
1283076
1283076
1283076
1283076
1283076
1283076
1283076
1283076
1283076
1283076
1283076
1283076
35345
1283076
1283076
1283076
1283076
1283076
1283076
1283076
1283076
1283076
1283076
251749
1283076
1283076
1283076
1283076
1283076
1283076
1283076
1283076
1283076
1283076
1283076
1283076
1283076
1283076
1283076
1283076
1283076
1283076
1283076
1283076
1283076
1283076
1283076
1283076
1283076
1283076
1283076
1283076
1283076
1283076
1283076
1283076
1283076
1283076
1283076
1283076
1283076
1283076
1283076
1283076
1283076
1283076
1283076
1283076
1283076
1283076
1283076
1283076
1283076
1283076
1283076
1283076
1283076
1283076
1283076
1283076
1283076
1283076
1283076
1283076
1283076
1283076
1283076
1283076
1283076
1283076
1283076
1283076
1283076
1283076
1283076
1283076
1283076
1283076
1283076
1283076
1283076
1283076
1283076
1283076
1283076
2686273
1283076
1283076
1283076
1283076
1283076
1283076
1283076
1283076
1283076
1283076
1283076
1283076
1283076
2023996
1283076
1283076
1283076
1283076
1283076
1283076
1283076
1283076
1283076
1283076
1283076
1283076
1283076
1283076
1283076
1283076
1283076
1283076
1283076
1283076
1283076
1283076
1283076
1283076
1283076
1283076
2686246
2801477
2027899
2686246
2686246
2801477
2686246
268746
2686279
444860
2801477
2686246
2686279
2686246
2686246
2686246
2686246
2686246
2801477
2686246
2686251
1283077
2023996
444860
180504
2801477
2023996
2686246
2801477
2801477
2801477
251749
1283077
2023996
2686273
2686246
1283077
2686279
2686246
251749
2686246
2686246
2686246
2801477
2510464
2686246
2801477
2686246
2801477
2801477
2023996
2801477
2686246
2023996
2686246
444860
2801477
2801477
2686246
2801477
180504
2686246
2686246
2686246
1283077
444860
294631
2801477
2801477
2801477
2023996
2686246
2686246
2801477
2686246
2801477
2686246
2686246
2801477
2686279
2801477
1586714
889953
2686246
2740802
2686246
2801477
2686246
1283076
2801477
455364
1283076
1283076
2301529
2801477
2686246
1283076
1283076
1283076
2801477
251749
2801477
2686246
1283076
2686251
2801477
1283076
756275
1283076
1283076
2801477
2801477
444860
1283076
2801477
444860
2686246
2801477
1283076
1283076
1283076
2686246
2801477
268746
1283076
1283076
2801477
2686246
1283076
35345
294631
2801477
294631
1283076
2686247
1493511
1283076
1283076
2686246
2301529
2686246
1283076
2801477
1283076
2801477
1283076
444860
2801477
2686246
1283076
2801477
1283076
1283076
2801477
1283076
2801477
2686273
1283076
1283076
2801477
2686251
445686
2801477
889953
2686246
1283076
1283076
1283076
1283076
2801477
1283076
1283076
1283076
2268578
2801477
444860
2023996
2686246
1283076
2686246
180504
1283076
2801477
1283076
2510464
180504
1283076
180504
2801477
1283076
180504
1283076
754042
2023996
180504
180504
2801477
2686246
2759724
2801477
1283076
2801477
1589733
2686246
2686251
180504
180504
2686273
2686251
1589733
180504
2801477
180504
889953
180504
1283076
2801477
2801477
180504
2686246
180504
2801477
2023996
948071
2801477
2801477
455364
1283076
2801477
2686246
1283076
1283076
180504
180504
180504
2743781
1283076
2510464
1283076
2686246
2801477
1283076
1283076
1283076
180504
2801477
1589733
180504
1283076
1283076
1283076
2801477
180504
180504
455364
2801477
180504
889953
180504
180504
251749
2686246
2686246
2801477
444860
2268578
2801477
444860
2686251
2686245
2686245
2801477
2801477
2268578
455364
2801477
2686246
1283077
2801477
444860
2023996
2686246
2801477
180504
2801477
2801477
2686279
2801477
2510464
2686246
1536592
2801477
2801477
2686246
2686246
2801477
2801477
2801477
2801477
2686246
2801477
2801477
455364
2686246
2686246
2801477
1542477
2801477
2801477
2801477
444860
2801477
889953
2686246
889953
2510464
444860
2801477
2301529
2801477
180504
2801477
2023996
2023996
754042
2801477
2686246
1269028
251749
889953
2686246
2686246
2686246
2686246
2686279
2686246
2686246
2801477
2686246
2686279
2686279
2686246
2686246
1340810
2801477
2801477
2801477
2686246
2686251
2686246
2686246
2686246
455364
2686246
2510464
2801477
2801477
2686246
2801477
2686246
2801477
2686246
2686246
251749
2510464
2801477
2801477
2686246
2801477
2801477
1283076
2023996
2801477
2801477
2686246
2801477
2801477
2686251
2801477
2801477
2801477
251749
444860
2801477
2686273
2801477
1283076
2801477
2801477
294631
1283076
1283076
2686246
445688
2801477
1283076
2801477
2686246
1283076
2801477
2801477
2801477
1283076
2801477
1283076
1589733
1283076
1283076
2510464
2801477
2801477
2801477
2801477
1283076
2686246
2801477
1283076
294631
444860
642926
2686246
2268578
1283076
1283076
2686246
1033977
2686246
2801477
2686246
2801477
2686246
1557034
2801477
1283076
444860
1586714
2801477
1283076
1589733
1283076
2686246
2801477
1283076
1589733
2801477
2801477
2801477
251749
2686247
2686251
1283076
2801477
2686246
1283076
2801477
2686273
2801477
1283076
180504
1283076
2801477
2801477
1283076
1589733
2801477
2686246
2686246
2686246
2686246
2801477
2801477
2801477
2686246
2023996
889953
1327983
2686246
2801477
2801477
1586715
2023996
455364
2686246
2801477
1335230
2801477
2686246
2686246
2686246
2686246
2801477
2801477
444860
2023996
2023996
180504
2801477
1589733
2023996
2801477
756275
2801477
2023996
2686246
2740802
2801477
2686279
2801477
2686246
244310
2801477
2686246
455364
2801477
1589733
2801477
756275
2801477
2801477
2686246
889953
242527
2023996
2686246
1335230
1283076
2686246
2759724
2510464
445686
2801477
2801477
2686251
2801477
2686246
444860
2686246
2801477
2740801
2801477
294631
2801477
756275
2023996
2023996
1493511
2686246
2686246
2801477
2801477
2686247
2686246
2686246
2801477
2686246
180504
2801477
2686246
2023996
2801477
2686246
2801477
2686246
2027899
2686246
180504
756275
2801477
2686273
2801477
444860
1557033
1557033
1557034
294631
2686251
1557033
1283076
1589733
2686246
2686246
2686251
2801477
2686246
1283076
444860
2801477
1283076
2801477
2686246
251749
2801477
2023996
2801477
1283076
2801477
1557033
1283076
180504
1283076
1557033
1557033
2686273
1283076
2801477
1283076
1557033
2686246
180504
1557033
1283076
2801477
1557033
2801477
1883369
180504
2801477
2686246
2801477
2301529
1557033
2686246
1557033
1283076
2801477
1283076
1557033
2023996
1557033
2686246
455364
1283076
2801477
1283076
2686246
1283076
2686246
444860
2801477
1283076
753085
1557033
444860
1283076
1557033
2801477
1283076
2100130
2686246
1283076
1557033
1335230
1283076
294631
1557034
1283076
2801477
444860
1283076
455364
1557033
2686246
2015860
2686246
2686246
2686251
2686246
251749
2510464
2686246
889953
2686251
2686246
2801477
2686246
2743781
2686246
2801477
2801477
2801477
2686246
2801477
2801477
2023996
2801477
180504
2686246
2686246
2686251
2686246
2686251
2686251
2686246
2801477
455364
2801477
2801477
2023996
2686246
2801477
2801477
2686251
2801477
2686279
455364
455364
2686251
2801477
2023996
2686273
2801477
2686246
2686246
2686246
2801477
753084
2801477
2686246
2686246
2801477
2686246
444860
2801477
2801477
2801477
2801477
2801477
2686246
294631
2801477
2686251
2801477
2801477
2801477
2686246
2801477
2686246
2686279
2801477
2686247
445688
2801477
294631
445688
294631
2023996
1283077
2801477
2686273
2801477
2686246
2801477
2801477
2686273
2686246
2801477
2801477
268746
2686273
2686246
2801477
294631
2686246
756275
2686246
444860
445688
2801477
2686246
445688
1283077
754042
2686246
180504
2801477
2686246
2801477
2801477
756275
2686251
2801477
2510464
1493511
754042
455364
756275
754042
2801477
2801477
2801477
2801477
2686246
180504
2545435
2545435
2801477
180504
2801477
2801477
2801477
2182403
948071
251749
2545435
2510464
1557033
2801477
1557034
2686246
2801477
2801477
2545435
180504
2686273
2801477
2686246
2801477
2545435
294631
2686246
687803
2545435
251749
2182403
2545435
2801477
1033977
2801477
2686246
948071
2801477
687803
35241
2686246
2686246
2545435
444860
2686246
444860
2686246
2801477
2801477
2743781
2801477
2801477
2740801
2545435
2801477
2686246
948870
687803
2801477
2545435
2801477
2686247
2686246
2801477
2801477
2686246
687803
2686246
2801477
2801477
2801477
2801477
2510464
251749
2023996
1557034
687803
2545435
2545435
687803
2686246
1283076
1283076
2740801
2801477
444860
1283076
948071
455364
2686246
2686246
2686246
1283076
2801477
2023996
1332145
2801477
2686246
2027899
2686251
2686246
251749
1283076
2686246
2801477
2686251
2686246
1557034
2686246
2686246
2686246
754042
753084
2686251
2686251
2686246
444860
2801477
1283076
1283076
2686251
2686246
1283076
2801477
2801477
1283076
2686279
2772074
2686251
2686246
2686246
1283076
2686246
908819
2023996
268746
2801477
2023996
1283076
455364
2686251
2686246
2801477
2686251
2510464
2801477
2686279
2801477
2023996
444860
1079999
251749
251749
908819
2686246
2801477
2801477
444860
444860
180504
2686246
2686273
2801477
455364
1079999
2801477
2686246
2686246
2686273
2801477
444860
1273711
1283077
2023996
2686246
2268578
444860
251749
180504
2801477
455364
2686246
2686246
251749
2801477
754042
2801477
2686246
180504
238854
2801477
2801477
2801477
2801477
1880590
444860
756275
2801477
2801477
2686246
251749
2801477
180504
2801477
455364
756275
294631
2686246
2801477
180504
2801477
2801477
1883369
2801477
2801477
2686246
2686273
2686246
444860
444860
948071
2801477
2801477
2686246
180504
2801477
2686273
444862
756275
2801477
1883369
2801477
2686251
2686246
754041
2686247
2801477
2686273
2801477
2686246
2801477
2686246
2801477
2686246
2686246
2801477
2686246
2801477
2686246
2801477
2801477
2686279
2801477
2686246
754041
2686246
180504
1586715
2686247
2686246
2686246
2686251
1883369
2801477
251749
455364
2686246
2801477
2686246
2686246
2686246
2686246
2686246
251749
2686246
294631
2801477
2686246
2801477
2686246
2686246
2801477
2801477
2686246
2686246
1283077
2801477
2801477
2686246
444860
2686247
2686263
2686246
2801477
2801477
2686246
2801477
754042
2686246
1283076
2686251
2686246
1283076
2801477
180504
2282904
2545435
754059
1283076
1589733
1033977
2801477
2801477
2301529
445688
889953
1327983
2801477
1283076
455364
2686251
2686246
753085
1283076
2801477
444860
2301529
2801477
1332145
2801477
555387
2801477
1340810
2801477
2801477
1283076
2686246
2801477
444860
2686251
2801477
2545435
2801477
268746
2801477
2801477
455364
445688
1033977
2686246
2801477
455364
2686246
268746
2801477
2686251
242527
2801477
2686251
2801477
180504
1283076
2545435
2801477
2686246
180504
2686251
445686
2686247
889953
2686246
2801477
2801477
2686246
1283076
2801477
2686251
444860
445688
2686273
2268578
294631
1283076
1283077
2686246
2740801
2686246
2801477
455364
2801477
2801477
2801477
2686246
2686246
2801477
455364
754042
1283076
2801477
889953
2686251
2801477
756275
2686246
1283076
2282904
754042
2686251
251749
2801477
294631
2686279
455364
35241
2801477
1283076
2801477
2545435
2801477
1283076
1283076
2801477
444860
2801477
2801477
1283076
2686246
2686251
2545435
2686251
2801477
2801477
294631
2801477
1335230
2801477
2686246
2801477
180504
2686273
251749
2686246
2686246
455364
251749
2762283
2686246
2268578
2686246
889953
2686246
909297
2686246
2801477
2686246
444860
2686246
2686246
2801477
756275
754059
2686246
455364
455364
2801477
756275
2686246
2801477
2801477
2801477
2801477
2686246
2686246
2801477
2023996
2801477
2686246
2686246
1340810
2801477
2027899
455364
444860
2686246
2686277
2686277
2686246
2686277
2801477
2686277
2801477
2686246
2686246
2686246
1033977
2801477
2801477
2686277
294631
2686246
2023996
2801477
2023996
2686246
2686246
2686246
2801477
2801477
2686277
2686246
1033977
2686246
2801477
2686246
2686246
2801477
2686246
2686246
2801477
444860
2801477
2686251
2801477
180504
2023996
2686246
238854
2686251
455364
2801477
2801477
2686251
2686246
2686246
444860
2743781
294631
1033977
444860
2801477
2686251
2686246
2801477
2801477
2686246
2686246
2686246
2686251
2801477
2686246
2686246
251749
455364
2686246
2686246
2510464
2686246
444860
2801477
2801477
2686247
2801477
889953
2282904
2686246
2023996
2686273
294631
2801477
2686251
2801477
2801477
2801477
2801477
1332145
444860
1883369
2686246
444860
2801477
2686251
2686246
2686246
2801477
2023996
2801477
2801477
2743781
455364
2686246
2801477
2686246
2801477
908819
1283077
294631
444860
2801477
1283076
753085
2801477
2686246
455364
455364
2801477
2686246
2686251
2801477
445688
2801477
2801477
2801477
2510464
2801477
2743781
2023996
908819
2686263
2023996
2801477
2801477
2686246
2801477
251749
948071
445688
2023996
2686246
1283076
1283076
2686246
455364
2686246
2801477
2686246
2686247
2686246
2801477
2686246
2801477
2801477
1033977
2801477
1283077
2686251
1283076
1557033
754042
444860
2686246
754042
2801477
2686246
2686273
2801477
1557033
2801477
2801477
2801477
2023996
2686246
2801477
444860
1283076
1283076
455364
2686246
2686246
1283076
2801477
2801477
2801477
1335230
2686246
455364
2801477
2801477
444860
2686246
2801477
2801477
1033977
2801477
2686246
2301529
2801477
2686246
2023996
444860
2801477
444860
2801477
754042
2801477
2023996
2686246
2801477
1586714
2801477
2686246
1283076
2740801
2801477
2023996
2686246
2686246
2740801
2023996
1283076
756275
754042
2023996
2801477
455364
2686246
444862
1557034
2686245
2801477
444862
2801477
242527
2545435
2801477
1557034
2686247
2801477
444862
2686246
444862
2686251
2801477
1136535
2686246
444862
2801477
2268578
2686246
2801477
2686246
1283077
444862
908819
444862
2268578
251749
2686246
2686246
251749
2801477
2686246
2801477
444862
2801477
889953
2545435
756275
1557034
2686246
2801477
2686246
2686246
2686246
2686246
2801477
2686246
2686246
444862
2801477
880159
2801477
2545435
2686246
455364
2801477
2686246
1880590
2801477
444862
444860
2686251
2023996
2801477
444862
2686246
251749
2686273
455364
251749
2801477
444862
444862
444862
2686246
2686246
2686273
2545435
2023996
2686273
444860
2801477
2801477
2686246
2743781
2023996
2801477
2686251
2686246
444862
756275
444862
2545435
2801477
2686246
2686246
180504
444860
2686246
2023996
2801477
2686246
754042
2686246
2686246
2686246
251749
2801477
756275
1283077
753084
1883369
444860
2801477
2686246
2801477
1474867
756275
2801477
2801477
180504
1335230
2801477
2801477
1493511
2686247
2686246
2801477
2686246
2686246
1033977
1137745
2686251
2801477
2740801
2686246
2801477
2801477
2686246
2801477
2023996
251749
2686246
2686251
2686246
756275
2023996
2686246
2801477
2801477
1327983
2686246
2801477
444860
2686246
2743781
2686246
754042
2686246
1283076
2686273
1283076
1283076
2801477
2686246
2686246
2801477
1283076
2686246
455364
1283076
2023996
1283076
2510464
1283076
1283076
2686246
2801477
1283076
908819
1283076
1283076
1283076
2801477
1283076
2686246
1474867
1283076
1586714
1283076
2801477
49964
1283076
180504
180504
1283076
455364
908819
1283076
1283076
2801477
2801477
2686251
1283076
444860
1283076
1283076
2686246
2801477
2686246
1283076
2801477
294631
2801477
2686246
1283076
2801477
1283076
1283076
2023996
2801477
1283076
1283076
1283076
455364
1283076
1283076
2686247
756275
1283076
756275
2801477
2743781
1283076
2801477
1283076
2801477
1283076
889953
2801477
1283076
2686246
908819
2547425
1283076
2686246
2686246
1335230
1283076
445688
2686246
2686246
1283076
2686246
2801477
1283076
756275
1283076
1283076
1283076
1283076
2686277
1283076
1197951
1283076
2686246
2686246
2801477
1283076
1335230
1283076
2801477
2801477
2686246
180504
180504
908819
1283076
2686246
2801477
1283076
1283076
2743781
2686246
2801477
2686246
2801477
1283076
2801477
1283076
251749
1283076
2686246
1283076
2510464
1283076
2686251
2801477
455364
2801477
455364
2801477
1033977
2686273
238854
2801477
180504
2686247
455364
2801477
1283077
2801477
180504
2686246
2801477
2686246
180504
2801477
1493511
2743781
2686247
2801477
2686246
2686273
2023996
2801477
2686246
2686251
2801477
2801477
2686246
444860
754042
2686246
251749
2801477
251749
2801477
2801477
180504
455364
2801477
2801477
2801477
180504
2801477
294631
2801477
2801477
2686246
2801477
2686246
2801477
869662
2686246
2801477
2510464
1283076
1033977
2801477
948870
2801477
2801477
2686247
2801477
1283076
948870
2686251
2801477
1283076
2801477
2801477
2023996
455364
2801477
2801477
444860
2801477
2801477
2686246
2686246
1335230
1283076
2023996
2023996
2686246
2801477
2801477
1335230
2027899
1474867
2023996
2801477
2686246
2686246
2801477
2801477
1325731
2686246
445686
2801477
180504
2801477
2023996
1283076
1283076
2023996
251749
2743781
2801477
1474867
2686251
268746
1335230
455364
1283076
889953
2023996
2686246
2268578
1283076
2686246
1283076
1493511
2801477
2801477
251749
2023996
908819
2023996
753085
756275
2743781
2801477
2023996
444860
754059
754042
2801477
2801477
1283076
2686277
2686246
2686246
2801477
754042
2686251
2686246
2801477
1542477
2686246
1557034
2801477
251749
1557033
2686277
756275
2686246
2686246
2801477
251749
2801477
2801477
2801477
2801477
444860
2801477
2686251
2801477
1586713
756275
2023996
2801477
2801477
2686246
2023996
2801477
2023996
444860
251749
2686246
2801477
2801477
2686251
2510464
2801477
444860
2686246
2686246
2686277
2686246
251749
455364
2801477
889953
2801477
2801477
756275
2801477
2801477
2023996
2686246
2282904
2686246
2678601
180504
2801477
2686246
2801477
2023996
2686246
2801477
1283076
1335230
2268578
294631
2686273
1033977
2510464
294631
438482
438482
2801477
2686246
2686273
2801477
455364
444860
1283077
2686246
444860
2510464
180504
2686246
438482
2686273
2686251
251749
2801477
2801477
438482
2686246
1474867
2801477
438482
2545435
756275
2801477
455364
929832
2301529
2686273
2686246
2686251
2801477
1474867
2743781
438482
2686273
2686246
2801477
2686246
180504
438482
2801477
2801477
2686246
444862
908819
2801477
2801477
2801477
2686246
2801477
2801477
438482
2801477
2686273
2686246
948071
294631
2801477
438482
294631
2301529
2301529
294631
2801477
2686251
2801477
2686273
2686251
2686273
2686246
2801477
1332145
2686246
889953
455364
2801477
2801477
2510464
2801477
2023996
2801477
2801477
2686246
2801477
2801477
2510464
2801477
2801477
444860
444860
1493514
2801477
2801477
455364
455364
2268578
444860
444860
2801477
889953
2801477
756275
2686246
455364
2686273
2686279
2801477
2801477
2686246
756275
2686273
2686246
756275
756275
2801477
1327983
2801477
180504
2686246
2801477
2686246
2801477
1335230
2686251
755272
1392231
2686246
268746
2686246
2686246
2686279
2686273
1283076
2686246
1283077
2686277
1283077
2801477
2801477
2686246
180504
756275
251749
2801477
2801477
2686277
2801477
2801477
2023996
2801477
180504
756275
2686246
2686273
756275
2545435
2686246
2023996
2686246
2801477
2545435
908819
1542477
2801477
2801477
2801477
2686246
1873777
2801477
444860
2545435
2801477
2801477
2686246
455364
2801477
2027899
2686246
444860
2801477
2023996
754042
2545435
2545435
2686246
2545435
2545435
455364
889953
180504
2686246
2545435
2023996
2545435
1278479
2686246
444860
2686246
1328029
455364
2686246
2801477
2740801
1033977
2740801
2545435
2545435
2545435
2686279
2686251
2801477
2801477
455364
2545435
2801477
2545435
35241
2545435
948071
2686246
2801477
2801477
294631
948870
2023996
2545435
754042
2686246
1033977
2801477
756275
2545435
268746
455364
2686251
2801477
2686246
2686246
2686246
455364
2686246
347327
444860
2686246
754042
2545435
2801477
2545435
251749
2686246
2686246
445688
2801477
1392231
2686246
180504
2686246
2801477
1033977
2801477
889953
2801477
2801477
2510464
2801477
2801477
180504
2801477
2686273
444860
2801477
2686246
2801477
44088
2801477
2686246
2023996
1493511
2686279
889953
251749
2801477
2686246
2801477
251749
2686246
2686251
2801477
2686251
444860
1542477
2801477
1033977
2686277
2510464
2801477
1335230
2686273
2801477
445688
2686279
445688
2686251
756275
1815521
294631
2686246
251749
251749
2686273
2686279
2801477
2801477
1283077
2686246
445688
251749
948071
2801477
2801477
2686246
2801477
2686246
251749
2686246
2801477
1883369
2686246
2801477
2686251
2686251
2686251
889953
251749
1332145
1883366
2023996
455364
2801477
1883366
2801477
1557034
2686273
1965368
444860
2801477
2686263
2686246
948071
1883366
2686247
908819
2686246
2686251
2801477
2686279
2686279
2023996
455364
889953
455364
251749
1883366
2801477
2686279
2686279
2801477
445685
1557034
1557034
2686273
2686279
2686273
2686273
908819
1883366
294631
2686246
2268578
2801477
2686246
2801477
2801477
49964
2801477
2801477
2801477
1283076
2801477
2801477
2801477
2801477
444860
2686247
1283077
2686246
2801477
2801477
908819
2100130
1557034
2686251
756275
2686279
2801477
2686246
444860
1332145
2801477
2686279
1883366
1589733
2686246
2801477
2743781
2743781
2801477
2743781
180504
889951
2023996
2801477
2801477
2743781
2743781
756275
889951
455364
1883368
2801477
444860
889951
2743781
2801477
889951
2686251
2686279
268746
2686246
180504
2743781
2801477
2743781
2801477
2801477
2801477
2801477
2023996
2801477
180504
2686251
2801477
2686246
1557034
2743781
2686251
444860
294631
889951
2743781
444860
1033977
948071
2686246
2743781
2510464
2268578
180504
2686273
2801477
2743781
889953
1283077
2686247
2801477
2801477
2743781
889951
2743781
2743781
444860
889951
2743781
1542477
2686273
2801477
2743781
455364
889951
2801477
2740802
2686246
2686277
2743781
889951
2686246
2686273
444860
756275
2686273
251749
2743781
756275
908819
2801477
2686273
889953
2686251
2801477
889951
2686246
2686247
2743781
2801477
2801477
2686273
754042
754042
2686246
2801477
2686273
2686246
2801477
2686246
2801477
1392231
2801477
445683
2686279
2023996
2801477
1542477
2801477
444860
455364
2686263
445686
2801477
2023996
2801477
1557033
2801477
2686277
2686246
2801477
948071
2686279
2023996
35241
1335230
2686246
2801477
180504
2801477
2801477
1335230
1033977
1335230
756275
35241
2801477
2686246
2801477
2686277
2686247
2686279
294631
756275
2801477
2801477
294631
1335230
2686246
455364
948071
444860
2545435
2801477
2801477
2801477
2545435
2801477
2545435
2686246
880159
335797
948071
2801477
908819
2268578
2801477
136084
2801477
2686266
2686279
2801477
2686273
2545435
2686263
2545435
2801477
2686246
2545435
2686246
1332145
2545435
2801477
2686246
444860
1332145
2545435
2801477
2801477
2801477
2801477
455364
2740801
445686
1137745
2801477
2686246
2545435
2545435
2023996
693272
238854
1283076
35241
2027899
693272
2801477
1542477
2801477
2023996
2801477
444860
2801477
1332145
756275
2801477
445696
756275
251749
2686251
2686246
2545435
2686246
2801477
251749
2801477
2545435
1586714
2801477
1332145
756275
2023996
455364
2801477
1557033
756275
444860
438482
2686279
455364
2686246
2686273
1536592
2801477
2801477
2801477
2801477
1197951
756275
445696
2801477
1283077
2686246
2686273
2686246
2801477
2686246
2686246
2686246
1283077
2686246
1392231
2686273
251749
2686246
2801477
1815521
2801477
1474867
169683
444860
2801477
1493511
2801477
2686246
2686279
2743781
1815521
2801477
2686273
1033977
1168478
2801477
444860
1815521
2686246
2801477
756275
279006
1536592
2801477
2801477
1586714
2801477
2801477
1883368
2686246
754042
455364
444860
2801477
2686251
2801477
2801477
2686246
2801477
2023996
889951
2686246
2686246
2686251
2686273
2686246
889953
2023996
2801477
2801477
754059
908819
2023996
908819
908819
2801477
2686245
908819
444860
2027899
2686273
2801477
2801477
2686246
2686273
2801477
445688
2686246
444860
2545435
2801477
251749
2686246
2801477
251749
908819
2740801
2510464
2686246
2510464
2686246
908819
251749
2686246
948071
1586714
2801477
948870
2801477
251749
2801477
2510464
1197951
2686273
2801477
753085
2801477
2686246
2510464
294631
754059
2686251
445686
2801477
2023996
2686277
908819
2686246
2801477
2801477
444860
2801477
455364
2686246
455364
2023996
2801477
754042
2801477
1283077
2801477
2801477
1586715
2801477
2801477
2686246
2801477
2023996
444860
869724
251749
455364
2686247
1474867
2801477
294631
2686251
2686246
2686246
2801477
2686246
2801477
2801477
2686246
754042
2023996
2686246
455364
754042
2801477
180504
756275
2801477
2686245
455364
889953
294631
455364
445686
2686246
1033977
444860
2686246
889953
2801477
444860
2686246
238854
756275
294631
2801477
251749
2801477
948071
948071
2801477
2268578
2686246
2686246
2686246
2801477
180504
948071
2801477
1283077
2801477
889953
948071
2023996
2686273
180504
294631
2801477
2686246
2801477
2686279
2686246
294631
2801477
2801477
2801477
2801477
1542477
2801477
2801477
2686246
2686246
2686273
2801477
2801477
1168478
2686279
1197951
444860
1168478
2801477
2801477
2023996
2801477
455364
2801477
2686277
2686246
2801477
455364
2686277
251749
2801477
180504
889951
1197951
2686246
756275
2686279
2686279
445686
2801477
754042
2801477
455364
2686246
180504
2686247
2686246
2686246
2686277
2801477
756275
2686246
2801477
251749
2686246
180504
2686273
2801477
1586714
2686246
2686246
2801477
180504
1283077
2686246
268746
2686246
2686246
2801477
1335230
455364
2686273
1168478
2023996
251749
2801477
455364
2686246
2801477
455364
2801477
1586715
444860
2801477
2801477
2023996
2801477
2686247
251749
2686246
1033977
444860
2801477
2740801
754059
2686273
1197951
2686266
2740801
2740801
2301529
1332145
268746
2740801
2740801
2740801
2740801
948071
2801477
444860
2740801
445686
2686266
445686
1332145
2023996
2801477
2686246
2740801
1332145
948071
2801477
2740801
2740801
2510464
880161
2740801
2740801
1026955
242527
1332145
2686266
1332145
294631
2686251
2740801
1168479
2740801
2740801
2740801
2740801
2740801
1332145
2740801
2740801
2740801
1332145
2740801
2801477
2740801
2282904
2740801
2740801
2801477
2801477
2023996
2801477
1335230
2740801
2686246
2023996
2740801
1557033
2686273
2740801
2740801
2740801
908819
2686247
2801477
1283077
169683
2740801
2686246
2740801
546805
2686246
1542477
2740801
1332145
1332145
948071
2740801
2740801
2740801
2686251
2740801
169683
444860
2801477
169683
445686
1536592
2740801
2740801
2740801
2740801
754041
2740801
444860
2801477
2740801
2268578
445686
1332145
908819
2801477
2686246
2801477
2686266
754059
2023996
2801477
455364
2686273
2740801
2801477
2023996
2023996
1332145
2740801
889953
1332145
754059
2740801
2099637
2740801
2565501
2801477
2740801
1197951
2801477
2740801
2801477
1226258
2740801
754059
948870
1332145
756275
2740801
251749
2740801
889951
2686279
2740801
1557033
889953
1332145
2740801
2686246
1332145
2686246
1332145
2740801
2740801
948071
889953
2686277
2740801
908819
169683
180504
1332145
889953
2740801
2740801
889953
238854
268746
908819
1197951
1332145
2740801
2740801
2801477
180504
2740801
2740801
2740801
908819
1335230
2740801
169683
2740801
1332145
2740801
444860
2686266
2740801
1883368
754059
2740801
180504
2740801
2740801
2686246
2740801
2801477
169683
2686246
2740801
2686279
2740801
2686246
753085
2740801
948071
2740801
1026955
444860
908819
169683
1332145
2740801
2099637
169683
2023996
444860
2740801
2801477
2686277
1332145
2686246
2740801
1332145
1332145
2740801
444860
2801477
908819
1332145
2740801
2510464
754059
1332145
2801477
2801477
2740801
1332145
2740801
2740801
455364
908819
2740801
2740801
444860
2740801
169683
754059
753085
2801477
2686279
1332145
2740801
908819
2283025
2801477
1332145
2801477
2686277
2801477
2023996
2801477
1283077
2023996
180504
756275
455364
2686246
268746
2686273
2801477
2801477
2801477
1168478
1586713
2686273
2686246
2801477
889953
2801477
2686246
2686273
1340810
754042
756275
2686246
2023996
2686273
2686246
2686277
1283077
2801477
1168479
2686279
2268578
2686273
1335230
2686246
2686246
251749
2686273
251749
2686246
2801477
251749
2801477
2023996
1335230
1335230
2686273
2686246
2801477
2023996
1542477
2686279
444860
251749
2686246
2686279
2686279
2686279
2801477
251749
2686279
2100130
2686279
2686279
2686246
1335230
455364
2686246
1493511
2023996
754064
2686279
2740802
2686279
251749
444860
2801477
2686273
2301556
2801477
2801477
10506
10506
2801477
2686246
1283077
2686246
2686251
2686273
2686279
2686279
1033977
2686279
180504
2801477
1033977
2686279
2268578
2686279
2686246
2801477
2801477
2686273
2686279
2686246
2801477
2686279
2686279
2686279
2801477
2268578
2801477
10506
2686279
908819
2801477
2801477
2686263
2023996
1474867
2686279
2686246
2686273
2686279
2686279
2686246
1168478
294631
2686246
754064
2801477
2801477
2686279
2801477
1283077
2686273
2801477
1332145
2686279
1033977
2801477
2801477
2801477
180504
2023996
455364
2686277
35241
2801477
2023996
755272
2686277
2801477
2023996
2686246
2801477
2801477
251749
2801477
2801477
2268578
2801477
2545435
2801477
251749
268746
1197951
2545435
251749
1283077
1335230
2545435
2686277
2484217
2686246
2686246
1332145
2686246
2686277
2801477
1586714
2801477
2740801
2686277
2801477
2686246
2686246
2686266
251749
2686251
294631
2686266
2801477
2686246
2801477
2686279
242527
2686246
1542477
2686277
1557034
889953
2801477
2686246
948071
1542477
2801477
251749
1332145
251749
2023996
444860
2686246
2545435
2686251
948071
2686246
2801477
889953
1332145
2801477
889953
2686246
2801477
1340810
754042
754037
1586714
2686246
754042
455364
455364
2801477
2686273
2686279
2801477
35345
2801477
2801477
1327976
2801477
444860
2686246
169683
2686277
2686246
2686246
1033977
2686246
2686279
2772059
948071
2801477
251749
322019
2801477
2801477
948071
2686273
2801477
2023996
2686246
2686246
251749
756275
1327976
2686246
2268578
2801477
1283077
908819
2686247
455364
2686247
2801477
2686246
889951
1327976
1033977
2801477
2743781
2686246
2743781
536453
889953
251749
1332145
2023996
889953
2686246
2801477
2801477
2023996
2801477
294631
2686246
2801477
2801477
294631
2686246
2801477
1197951
2686251
2801477
251749
2801477
455364
889951
2801477
2686246
1033977
2023996
2801477
2801477
444860
2801477
2801477
1586715
2801477
1283076
2801477
2801477
908819
444860
1392231
35345
687803
2686246
2686246
2801477
889953
2743781
2801477
2801477
687803
687803
687803
294631
908819
687803
2801477
2686246
687803
687803
687803
2686246
2686246
2801477
687803
2023996
687803
444860
2801477
2801477
687803
687803
251749
948071
194699
687803
687803
687803
687803
2686246
687803
268746
2686246
687803
687803
756275
2686246
687803
687803
2801477
444860
687803
455364
687803
2686277
2801477
687803
2686277
687803
268746
2686251
687803
2099637
2686251
687803
2801477
1283077
756275
687803
687803
687803
948071
2686277
687803
687803
2686246
687803
2801477
687803
687803
2686277
687803
687803
2027899
2686246
687803
687803
2801477
687803
2023996
1557033
687803
687803
2801477
687803
687803
2801477
2801477
687803
2801477
687803
687803
687803
2686246
2801477
687803
1557033
2686246
2801477
2023996
687803
687803
2801477
687803
2801477
687803
687803
687803
2740801
2686273
431892
2686246
687803
687803
455364
687803
687803
687803
687803
687803
1474867
687803
1335230
687803
1335230
687803
687803
687803
908819
687803
687803
687803
2023996
2801477
687803
687803
2686251
948071
687803
687803
1536592
687803
754037
2686251
294631
1392231
687803
687803
2801477
2023996
687803
756275
687803
687803
2686277
687803
687803
687803
687803
2686251
687803
1883368
687803
687803
1557034
2743781
2801477
1278402
2801477
2686246
1168478
2686247
445688
2686277
2801477
2686246
2686246
908819
2743781
908819
2801477
2801477
2801477
2686273
2686246
2801477
1335230
2801477
2801477
2801477
2801477
1391659
2686246
2686277
2801477
2686246
2023996
2801477
2686246
2801477
180504
455364
251749
2686273
2686246
251749
2686273
2801477
2801477
2686251
2801477
2686246
2510464
1197951
2686246
2801477
251749
2801477
251749
2801477
251749
889953
753085
889953
2686246
2686251
2686277
2686246
2772080
268746
2023996
2545435
2686246
2686246
2801477
2801477
2801477
1033977
2023996
2301529
251749
251749
2801477
2801477
2545435
2023996
754042
444860
2801477
2686246
2545435
2545435
238854
180504
2801477
2801477
2740801
238854
2686246
2686251
2801477
2801477
2686246
2023996
2686246
2686277
2686246
2801477
889953
889951
2801477
2686246
2801477
2686273
2686246
455364
2545435
948071
2801477
251749
948071
908819
1493511
2686246
455364
2801477
455364
180504
2686246
2686246
2801477
2545435
2801477
2801477
2545435
754059
2801477
754042
2023996
2686273
455364
2686266
948071
2801477
1283077
2740801
2801477
444860
2801477
2801477
2686277
2801477
2801477
2801477
754059
180504
2801477
251749
2686246
2801477
2686277
251749
889953
2801477
2686246
251749
2686246
2686246
2686246
2801477
2686246
444860
2801477
2024296
2686246
2686246
455364
2686246
2510464
2686246
2801477
444860
2740801
2801477
2801477
2686246
455364
2686246
948071
1542477
2023996
756275
2801477
444860
999883
2801477
889953
2743781
2801477
948071
1283076
2686246
756275
251749
2801477
455364
444860
2801477
908819
455364
1586714
2801477
242527
2801477
445686
294631
546805
2743781
2801477
948071
444860
2686246
908819
889953
1327976
1542477
2686246
444860
180504
2801477
1814284
909297
2743781
2801477
2743781
455364
2801477
948071
948071
2686246
2686251
251749
1327976
2801477
2801477
2801477
889953
2801477
948071
2686246
2686246
2801477
455364
2801477
180504
2686273
2686246
2801477
1283078
2743781
948071
1327976
2686246
2023996
2686246
2801477
2743781
2301529
1536592
2686246
2023996
2801477
1283076
2801477
1168478
2801477
2686246
1283077
2801477
445696
1033977
322019
2801477
2686277
2282904
2743781
1283077
2743781
2801477
2801477
2801477
2686246
889953
2268578
2801477
2743781
438482
2686247
1197951
948071
2686246
444860
2801477
2801477
2801477
251749
2686246
2801477
2023996
444860
445688
948071
2686246
2801477
2801477
2686246
2801477
1033977
2686246
2801477
2801477
1283077
2686246
2801477
244310
2801477
2686247
1197951
455364
2801477
322019
2801477
1033977
2801477
2686246
2686246
444860
2801477
2686246
2686246
2801477
2686246
2686246
2686247
2801477
2686279
2759724
445688
2801477
2686246
251749
2686246
2027899
2686246
2510464
2801477
251749
2801477
1542477
2801477
2801477
2686246
2801477
889953
948071
2801477
2686251
754059
2801477
2801477
2801477
2686251
2686246
2686279
2801477
2801477
2268578
1335230
2686246
2686277
2686279
2686246
929835
948071
35343
2801477
2686246
2686246
2686246
2686246
1197951
455364
2801477
1033977
244310
2686246
948071
136084
180504
2686246
2686251
2686246
251749
557289
2801477
294631
2801477
756275
2801477
2686246
2801477
948071
2686277
2801477
2686247
2801477
2801477
2801477
1273711
2801477
445688
908819
455364
2686246
2801477
2801477
948071
2801477
294631
908819
2801477
1033977
908819
2801477
455364
889953
2686246
1792273
2686246
2801477
908819
2686246
2801477
2686246
2686246
2686251
2023996
908819
2801477
455364
2801477
2686246
251749
2686246
2801477
2801477
1586713
2686246
2801477
753085
889951
908819
2686246
2686246
2686246
2801477
908819
294631
1033977
754059
2801477
2801477
2801477
948071
2686246
1033977
251749
2023996
908819
908819
2801477
1033977
455364
461711
889953
889953
2801477
2686246
1283076
2801477
2686246
1197951
2686246
322019
889953
2772074
908819
2801477
2686246
444860
2801477
444860
2686246
2686246
2686246
2801477
2686245
2686246
2686246
2686246
2686246
754059
2301529
2686246
2686246
2686246
2686277
455364
2801477
2686246
1335230
889953
2686277
2023996
1327983
1283077
1332145
754059
2023996
2686246
2801477
2686246
2686266
2801477
908819
2801477
1033977
2801477
908819
2686246
2801477
2686246
1150991
444860
1283077
2801477
889953
1283077
455364
754042
2686251
455364
2686246
2801477
2686246
2686251
889951
2686246
2686246
2686263
908819
1332145
444860
2686246
2686246
948071
294631
2686246
2686246
908819
889953
268746
2801477
1557034
1586713
1150991
2801477
2686246
2686246
455364
2023996
2686277
1557034
294631
2686246
2686246
2686273
2686246
2686273
2686246
2686246
445686
251749
2686246
2801477
1283077
2686273
2686279
251749
2686273
2686273
2686273
251749
431892
2686246
687803
948870
2023996
2686246
2686273
908819
444860
1283077
1327983
2686273
2801477
2801477
2686273
2686273
444860
294631
2686246
2801477
455364
2801477
1325731
2801477
2801477
2686273
2686273
2686273
2686273
431892
2686246
445696
908819
2686246
455364
2801477
2686273
2686246
431892
1586715
2686273
1335230
687803
2686273
2686273
2801477
455364
2686273
908819
445686
2686246
180504
2545435
2686273
2686246
2686246
444860
2686246
908819
2686273
431892
180504
2686273
1557034
1883369
2801477
444860
2686246
2686246
2801477
2801477
908819
1283077
2801477
2686273
2686273
2801477
444860
673376
2686273
2686273
908819
2686273
2686246
2023996
294631
2686246
2686273
251749
2686273
180504
444860
2686246
1283077
1033977
2801477
2686273
2686246
2686246
2041344
444860
2686273
2686273
2801477
2686273
444860
2686273
2686246
431892
2686273
2801477
2686273
1335230
889953
2801477
2801477
2686273
948071
908819
455364
2801477
2686273
2686273
573174
1168478
2686273
2510464
2686246
2686246
2686273
2801477
2686246
2686246
2801477
753085
2801477
251749
1792273
2686273
2686273
2686273
2801477
2801477
2686246
230158
2023996
2740801
2801477
2686246
2686246
2801477
2801477
1335230
2801477
2686246
948071
2801477
2801477
948071
2686246
2686246
444860
2686246
2686246
2686246
1335230
2686246
2686246
2801477
294631
2686246
909297
2801477
889953
444860
1335230
2686246
2686246
2027899
756275
2686246
2686246
445686
1392231
2801477
2686246
2686246
444860
2686246
251749
2723758
2023996
1283077
2801477
2686246
2686246
1542477
2686246
455364
455364
2686246
2686246
2686246
1283076
2686246
2686246
2686246
2686246
2686246
2686246
948071
49964
2686246
1335230
322019
2686266
2801477
2801477
2801477
2686246
455364
2801477
2686246
2686246
2801477
2801477
1283077
908819
2801477
2801477
2686251
251749
1335230
889953
455364
455364
2686246
2801477
2686246
2801477
2686251
2686246
2023996
2686246
2686246
2686251
444860
1283077
2801477
908819
2686246
1033977
1033977
2023996
2027899
2801477
2801477
444860
2686246
1283077
1283077
2686246
2686246
2686246
2801477
2686246
889953
1168478
889953
2686277
322019
2686246
444860
2801477
2686246
444860
2686246
2801477
455364
2686277
251749
1542477
2801477
2686246
2686246
2686246
2686246
2686246
2686246
445686
251749
2686251
2686246
2686246
2801477
2023996
2686251
2686273
2686251
445686
2686247
455364
2801477
889951
2801477
2686246
2686246
2510464
2099637
2686246
1269028
2686246
251749
1335230
948071
1283077
2801477
2686246
2686246
2801477
2801477
2686247
2801477
1542477
2686266
908819
2801477
2801477
2801477
2099637
948071
238854
908819
2686277
2510464
2801477
948071
1168478
2686246
2801477
948071
251749
2801477
2801477
322019
2686266
2099637
238854
754042
2686246
2686246
1557034
2686247
2099637
2686246
2801477
2686251
1332145
2686246
1168478
2686247
2686246
908819
908819
2801477
2686246
251749
2801477
2801477
908819
444860
1557034
756275
2801477
1542477
2801477
2801477
455364
2801477
2801477
1168478
908819
889951
2801477
2686246
1335230
889953
889953
455364
2801477
1542477
2686246
180504
294631
908819
2740801
948071
2801477
2686246
2023996
1332145
1792273
2801477
2686246
444860
2686246
2686246
2801477
756275
2801477
251749
1586715
2686246
1283076
1792273
2686246
1283077
444860
2686246
2801477
2801477
1392231
2801477
1586715
444860
455364
2686270
2801477
2686246
908819
2686246
251749
2686246
2282904
180504
2686266
2686246
251749
1792273
2686246
2801477
1792273
251749
2686246
2801477
1792273
1391659
2686277
2686246
2801477
2801477
754042
2686246
2686246
2801477
455364
2686246
908819
444860
444860
2801477
2027899
1283076
908819
1792273
2801477
444860
2686246
1283077
2801477
1335230
2801477
2686247
908819
180504
2686246
756275
268746
444860
1792273
2686246
1197951
251749
2801477
268746
1792273
2686251
2686277
889953
2686251
2801477
1792273
2686246
2801477
2801477
2686246
2686246
908819
948071
2801477
2686246
2686246
2801477
2801477
2801477
2686246
754042
1327983
1026955
2801477
2801477
2686246
2686246
2686246
2686246
948071
444860
2801477
2686246
2686246
2686279
2686246
1026955
2801477
2686246
2801477
2686246
251749
2801477
1033977
889951
2686246
2686246
2686246
2801477
2801477
444860
2801477
2686246
444860
2686246
2801477
889953
455364
2801477
754042
1033977
2801477
2686246
455364
2686266
756275
2801477
2801477
2801477
2268578
2686246
2801477
2801477
1026955
2801477
322019
889953
2801477
2801477
455364
2686246
2686246
908819
2686246
2801477
948071
2686246
2686246
889953
2686246
753085
2801477
444860
2686246
1586713
444860
1335230
2686251
2801477
2686246
444860
444860
1325731
948071
948071
268746
444860
753085
2801477
242527
444860
2801477
2801477
2801477
1168478
2686246
2686273
444860
2686246
268746
1586715
2801477
2801477
455364
1033977
948071
2023996
2801477
444860
2686246
2801477
444860
2801477
213775
2801477
238854
2801477
889953
444860
2686246
2801477
2686246
948071
2801477
2686246
880161
444860
753085
2801477
573174
908819
2801477
756275
2686246
455364
2801477
2686246
889953
10682
2801477
2686246
2686246
2801477
2801477
2801477
1815521
2801477
2801477
444860
294631
2740801
753085
251749
268746
948071
753085
2801477
294631
2686246
753085
1168478
2801477
753085
908819
444860
2686246
2023996
2686246
455364
756275
908819
908819
10682
2801477
948071
753085
2801477
251749
2268578
1536592
445686
268748
1335230
753085
455364
2686246
2801477
2686246
754039
251749
2510464
2686277
444860
268748
889953
2686246
2027899
753085
753085
2686246
1586714
2686245
2801477
251749
2740801
455364
2027899
455364
2023996
455364
2686263
2801477
908819
1033977
2027899
2686246
2686279
2801477
889951
2686246
2686247
2027899
948870
2686246
2686246
35241
169683
929835
2801477
2801477
2801477
251749
169683
2801477
455364
2801477
908819
2099637
2801477
2686246
1392231
2686251
169683
2801477
2027899
1332145
2686277
2686251
2801477
1332145
2686246
2023996
2801477
2801477
2041344
2686273
1332145
169683
2686246
889953
1327976
889953
455364
2801477
455364
2023996
2510464
1586713
1542477
35241
251749
2686247
2801477
2686251
1327976
35241
536466
2801477
169683
1283076
889951
2686247
444860
2801477
2801477
2801477
1197951
2801477
2801477
1332145
2801477
2686247
2686246
2686246
2801477
2686245
1327976
2510464
1814284
2686246
251749
889953
754041
1137745
455364
2801477
251749
2801477
889953
2023996
2801477
2686246
2801477
1327037
2801477
1033977
2801477
455364
2686251
268746
2686277
455364
294631
2801477
444860
2686246
2686279
2686251
2686246
2686251
2743781
169683
1980924
2686246
754059
908819
2801477
2801477
251749
1332145
2686246
908819
2686246
2801477
1493511
2801477
2079134
2686246
2801477
2686251
2801477
908819
2686246
908819
2686273
2801477
908819
2686246
1197951
889953
2801477
2801477
2801477
251749
908819
754059
445696
948071
455364
251749
2686273
948071
2686279
1493511
1586713
536474
251749
2743781
2801477
2686246
1493511
455364
2801477
2801477
2301529
2801477
1332145
2686246
2686246
2801477
2686246
2686246
2801477
444860
1815521
2686246
908819
2023996
908819
2801477
2801477
889953
1168479
268746
908819
2801477
908819
2801477
2686246
444860
2686246
889953
2686246
948071
2801477
2686246
251749
2801477
908819
455364
908819
294631
2686246
2801477
2686251
754059
2801477
908819
2801477
908819
2801477
1980924
2686273
2743781
2801477
908819
2686266
908819
889951
2686251
2686246
1332145
2686251
889953
2801477
756275
908819
1493511
2801477
445688
2686251
1327982
2740801
754059
2686279
2686251
2801477
2743781
268746
2023996
2801477
1493511
1392231
908819
1536592
908819
1874572
908819
2686246
1026955
2686246
2801477
2801477
2686279
2801477
880162
2023996
2686246
251749
2801477
889953
2686277
2801477
2686273
2801477
2801477
2801477
444860
2801477
1493511
2686246
1586714
2801477
2023996
2801477
2023996
2686246
1283076
180504
2282904
2023996
2686246
2686246
2686246
2801477
889953
2686245
294631
2686246
1033977
445700
2801477
2686277
2686246
2801477
2686251
2686251
693272
2686277
2686273
2801477
2686251
2801477
294631
2686246
2686246
2801477
1168478
251749
889953
2801477
889953
2801477
2686245
756275
444860
2801477
2510464
908819
756275
2686246
1557033
2801477
1557033
2801477
1197951
536453
2801477
948071
1197951
1197951
2686273
2530116
1197951
251749
1197951
1197951
2510464
444860
455364
948071
908819
455364
2686246
1536592
1197951
1197951
1197951
268746
2801477
756275
2801477
444860
889953
2801477
1197951
1283077
2801477
2686246
2741073
2801477
948071
2686246
444860
1197951
251749
1197951
455364
1557033
455364
1197951
2801477
455364
2801477
444860
753084
2686245
35241
1557033
889953
546805
1197951
444860
1197951
1197951
294631
2801477
2801477
2801477
294631
2686251
2740801
2686246
1197951
455364
1168478
1197951
2743781
2686246
2741073
2801477
536444
908819
2686251
2686246
2801477
1557033
2801477
2686273
2801477
1197951
1197951
908819
2686279
1536592
2801477
2686266
754042
444860
180504
1197951
2686246
1283077
908819
444860
2686246
2686266
251749
2801477
251749
2686247
1197951
2801477
251749
180504
2686246
1197951
348137
2510464
908819
1197951
2686251
1335230
2686246
908819
2686246
2686258
1283077
756275
2801477
908819
1474867
2686266
1557034
948071
2686246
455364
1493511
455364
754042
1542477
908819
455364
2801477
180504
2801477
590739
2801477
279383
2268578
1536592
169683
455364
180504
948071
2801477
2686266
2801477
455364
2801477
2023996
2801477
2743781
455364
1814287
1474867
2801477
2801477
1542477
382262
444860
1542477
2686246
169683
908819
455364
2686246
908819
2686247
948870
889953
455364
2801477
444860
753084
2801477
2801477
2801477
908819
2301529
2686246
908819
2801477
2801477
251749
2801477
2686246
908819
180504
2801477
2801477
2801477
169683
753085
2686246
2801477
180504
908819
2801477
2801477
2686246
908819
2801477
2801477
2686251
2023996
455364
1542477
908819
2801477
2686246
180504
455364
2801477
2801477
908819
2801477
909297
908819
2801477
1283076
908819
908819
1536592
908819
2801477
908819
2301529
1332145
1283076
2686251
2801477
251749
908819
1542477
2686266
2686246
2801477
2686270
908819
2741073
1557034
444860
2801477
2686246
1332145
948071
444860
1332145
444860
1586715
2801477
2510464
2801477
244310
2510464
2686246
2801477
908819
2686246
1283077
2801477
1033977
444860
251749
1332145
1332145
455364
1332145
2686246
2801477
1197951
2740801
1332145
2686246
2801477
1332145
455364
889953
2801477
2801477
1168478
2801477
2686246
948071
444860
2686266
2686246
1332145
1542477
1033977
2686277
1197951
2686246
754042
2801477
268746
251749
455364
322019
2686246
444860
753084
445688
2510464
2801477
444860
1586714
251749
1332145
889953
2801477
889953
2801477
2686246
756275
948071
754059
1586715
2740801
1332145
294631
1168478
455364
2099637
180504
2801477
444860
2801477
2686251
754059
2686279
2686246
455364
2801477
2801477
2686246
2801477
455364
1283077
2801477
2686246
279383
2510464
2801477
251749
756280
230158
2801477
2099637
2801477
948071
294631
1542477
908819
2023996
294631
294631
880161
908819
294631
2686246
294631
2023996
294631
2801477
2801477
2801477
2801477
294631
908819
1557034
756280
2801477
1883368
2801477
294631
2686273
2801477
2801477
2801477
2510464
1536592
2801477
756275
754059
2801477
294631
294631
2023996
889953
294631
2686246
294631
2801477
2023996
294631
2268578
2801477
2801477
2801477
2801477
2801477
756275
2686246
2023996
455364
2801477
2686245
2801477
2510464
294631
2023996
294631
908819
2801477
294631
2686251
2686245
2510464
754039
251749
455364
2686245
948071
948071
948071
948071
948071
2686246
948071
948071
948071
948071
908819
948071
948071
948071
455364
948071
2801477
948071
948071
948071
948071
2686246
948071
948071
948071
2801477
948071
1332145
2801477
948071
948071
948071
908819
2686251
948071
948071
948071
2801477
948071
948071
948071
948071
948071
948071
948071
2268578
948071
948071
2686246
2686266
948071
889953
948071
948071
2801477
948071
948071
948071
1283077
889953
948071
948071
2801477
948071
948071
948071
948071
2268578
948071
455364
180504
948071
948071
948071
2686247
948071
948071
948071
948071
948071
948071
948071
948071
948071
2801477
948071
948071
948071
948071
948071
1283077
2301529
948071
2801477
948071
948071
948071
948071
455364
948071
948071
948071
948071
948071
948071
2023996
2023996
2686247
2801477
948071
948071
2801477
948071
948071
948071
948071
948071
2686246
948071
753085
948071
1340810
948071
948071
948071
2686251
2801477
2686246
948071
2686277
948071
2301529
2686266
948071
948071
948071
948071
444860
2801477
948071
948071
948071
2801477
948071
2686277
948071
948071
948071
948071
948071
948071
2301529
251749
948071
948071
251749
889953
948071
444860
948071
2686246
948071
948071
948071
948071
948071
948071
2801477
948071
455364
948071
2686246
948071
948071
2801477
948071
948071
2562192
948071
948071
948071
1542477
948071
889953
2301529
948071
1586714
1033977
948071
948071
754059
1283077
2686246
756275
908819
2023996
2562175
880161
455364
2801477
2772059
2686246
2268578
2743781
1332145
889951
2801477
2023996
1273711
2801477
251749
2686251
1883371
1137745
880161
1815521
2740801
2301529
2801477
2686246
1197951
889951
2023996
1168478
2686246
2686251
2686246
889951
1079998
445692
2801477
2801477
2686246
2686251
2801477
2801477
1391659
889951
2740801
2686279
2023996
2023996
1332145
455364
756275
2686246
2023996
2686246
2801477
1573458
2801477
908819
948071
2686251
693272
2686246
2023996
2686246
2801477
294631
1898060
2268578
1335230
1197951
2686246
1273711
1815521
1332145
2801477
1557033
2740801
1542477
251749
2801477
455364
1197951
1327981
2562175
2686246
565140
444860
2562175
2801477
1168478
1392231
238854
251749
2070181
2686251
2023996
2686246
2740801
455364
294631
908819
908819
1168478
2801477
1332145
756275
2686246
2686246
2801477
2079426
2023996
1283077
2801477
2801477
2801477
2023996
2801477
2686251
2686246
2686246
2686251
936152
2801477
2686246
2686251
2740801
2686246
2801477
2801477
1557034
1332145
2686246
908819
2801477
908819
908819
455364
294631
455364
948071
908819
268746
444860
180504
2282904
2801477
948071
908819
1332145
455364
2759724
1340810
908819
948071
1283076
294631
1283077
2801477
948071
1283076
2801477
251749
2801477
908819
889951
2801477
948071
2801477
445685
2801477
2686246
455364
2686246
2801477
2801477
2801477
2282904
2686251
2801477
1150991
2801477
908819
908819
2686251
455364
455364
2686246
2801477
948071
242527
2801477
444860
948071
1168478
444860
2801477
908819
2686246
948071
2801477
908819
2801477
268746
948071
948071
2772074
294631
1557034
2801477
948071
1392231
2686246
1530085
1536592
1586715
455364
948071
2545435
2545435
251749
2686266
2545435
2686246
1283077
2545435
2801477
2545435
2545435
948071
2545435
2801477
889951
2686246
455364
2545435
756275
2801477
2686245
444860
536466
2545435
2801477
2545435
948071
2545435
455364
2686251
2545435
2545435
180504
180504
2545435
2545435
2545435
2686246
322019
948071
251749
754042
2545435
948071
2545435
2545435
2545435
180504
2545435
2686246
2545435
2801477
2545435
756275
2545435
2545435
2801477
2545435
2545435
294631
35345
756275
2686246
2545435
2545435
2545435
251749
180504
754059
2801477
455364
2801477
2545435
2545435
251749
2545435
2545435
1883369
948071
2545435
2801477
2686273
2545435
2545435
2545435
2686246
948071
2545435
2801477
2801477
2545435
2545435
1838074
2545435
2545435
2545435
10678
2545435
889953
948071
2545435
2686246
2545435
2484217
2801477
2801477
2545435
444860
251749
180504
2686246
2801477
2545435
2545435
1542477
2545435
1586714
2801477
2545435
1883369
2545435
2801477
2545435
1197951
2801477
2545435
2545435
2545435
2545435
2545435
754059
1542477
2686246
2545435
2801477
889951
2545435
2743801
948071
180504
2545435
2545435
2545435
2801477
908819
2801477
2545435
2545435
2801477
2686251
2686246
2545435
948071
2686246
2686246
2545435
2801477
268746
2545435
1197951
2801477
2545435
2801477
2801477
2801477
1327982
2545435
2545435
908819
2686279
2545435
2801477
2686246
2686246
2545435
2545435
1335230
2686251
1283076
2686251
2686246
1283077
1168478
1332145
2686246
2801477
756275
455364
1283077
1335230
880161
1033977
251749
444860
2686246
2801477
2686251
2686273
2686251
2801477
2686246
908819
2801477
2801477
754067
2686247
2801477
756275
2801477
2801477
444860
2686266
2801477
180504
2099637
1168478
2686246
2801477
948071
455364
1197951
1283077
1332145
294631
889953
2686266
2801477
2678601
2801477
445686
294631
1392231
2686246
2801477
2801477
1392231
2686246
444860
455364
455364
251749
948071
455364
1283077
1586715
753084
908819
889953
445686
1283077
1197951
1332145
2301529
2678601
2686246
754067
2686251
756275
754042
445696
2023996
948071
455364
455364
444860
455364
2801477
2801477
1391659
2686251
908819
2301529
2801477
2743801
2801477
2801477
444860
2686246
2686246
2686246
2023996
1335230
2801477
908819
908819
1392231
2686266
2801477
1392231
908819
2686246
889953
2801477
238854
2510464
908819
1586714
455364
2686246
889953
445686
455364
908819
756275
2801477
2801477
2686246
2686246
908819
2801477
2686246
889953
754042
2743801
444860
251749
1283077
1392231
2801477
756275
1335230
2686246
2686246
2686246
2686246
2801477
455364
2023996
2801477
2510464
908819
1335230
2686246
2686246
2686266
2801477
2686273
908819
2801477
1883379
251749
2686246
455364
2801477
754037
2801477
908819
2801477
2801477
2686246
2686246
455364
2686246
455364
445688
2801477
756275
2801477
2023996
2801477
444860
268746
2801477
2801477
445686
2801477
2686246
2801477
180504
880159
2686246
1168478
2686246
2686247
455364
2801477
2801477
455364
2686246
2686246
2801477
2801477
2801477
1340810
2801477
2801477
2686246
2801477
2801477
242527
889953
2801477
2740801
294631
242527
1883366
2740801
2801477
889951
2801477
889951
2740801
1557033
754059
2686246
455364
251749
908819
756275
2100130
2740801
2740801
2801477
2023996
1026955
2801477
889951
431892
2686246
2023996
889951
194699
2686246
1557033
948870
2545435
444860
2801477
2801477
2686246
2801477
948071
1586714
2686266
2010329
2686246
382262
2740801
2801477
2801477
2686246
2801477
2801477
889953
2686247
2686246
948071
2686246
2801477
1283076
2301529
2801477
455364
242527
1197951
1572750
2801477
909297
1168478
2801477
2801477
455364
251749
889953
251749
948071
889953
908819
948071
2740801
431892
2801477
908819
948870
2801477
1392231
1589733
2743781
889953
889951
2740801
2545435
251749
1332145
2545435
2686080
2801477
2740801
2686246
2686251
948071
2686247
2801477
889953
2686246
2801477
2545435
2545435
908819
2015873
2801477
2545435
948071
2801477
455364
2801477
268746
2801477
754059
294631
1392231
2801477
889953
2686246
244310
2801477
754059
565140
2801477
908819
238854
2545435
908819
1283076
2686246
2740804
1542477
1792273
754059
2801477
2801477
2740801
1493511
2801477
2545435
754059
2545435
2801477
2801477
2772074
2686277
889951
889951
2545435
2686266
2801477
1197951
2686246
431892
431892
2686266
2686251
2740801
2545435
2801477
2686247
948071
2686277
2545435
294631
2686251
753085
908819
2801477
2801477
444860
294631
2801477
194699
2801477
382262
2801477
908819
2801477
2801477
1168479
1325731
431892
2801477
2801477
431892
1332145
889953
2740801
455364
242527
754059
2740801
35241
294631
431892
754059
2801477
2545435
455364
2801477
908819
2686247
948071
889953
2099637
251749
756275
444860
908819
753084
2686246
1883368
754059
889951
753085
431892
431892
319522
2023996
2801477
1883369
2545435
2801477
2315608
242527
948071
1392231
194699
2801477
2801477
756275
2801477
2743781
2740801
2099637
2743781
908819
1392231
2801477
1586713
754059
2801477
2686251
2801477
431892
908819
2801477
948071
908819
2801477
169683
2772074
2801477
10506
242527
251749
948071
754059
2801477
2023996
1332145
889951
889953
754059
889951
2686251
1572745
2801477
444860
2801477
431892
2801477
889951
2740801
180504
889951
2801477
754059
2801477
431892
431892
889953
194699
2686251
2686266
431892
2545435
1815521
2545435
242527
431892
2545435
2545435
2686246
889951
445688
2740801
2686273
2801477
889951
2801477
2545435
908819
754059
2545435
2545435
2686251
889951
2686247
455364
66797
1792273
2545435
2740801
889951
2801477
2743801
2545435
754059
2545435
1150991
1493511
2686245
455364
1883368
2801477
2740801
2301529
1557033
2801477
889951
2740801
756275
889953
2801477
754059
948071
431892
1392231
2686246
2740801
754059
455364
909297
756275
2801477
889951
2686246
1557034
242527
2010329
444860
455364
2801477
294631
2801477
242527
2801477
1883369
455364
2545435
889953
455364
889951
2801477
908819
2545435
2686246
2801477
2740801
2545435
2545435
1332145
2801477
2801477
2686251
1137745
2023996
2801477
2686251
251749
2686246
2686246
2686246
756275
889953
2686246
322019
536466
2686246
251749
455364
2801477
2686246
2801477
444860
455364
268746
2686246
2686246
2801477
455364
2686247
2686266
2686246
251749
2801477
2801477
455364
889953
2801477
2686246
322019
2801477
2801477
756275
889953
756275
1392231
1880590
1168479
2686246
756275
2801477
2023996
1542477
2686246
2686246
455364
889953
2686246
2686246
2686246
455364
2801477
2801477
2801477
756275
455364
2686246
2686245
2686246
2023996
322019
2686246
2686246
251749
2801477
2801477
1168478
2686246
2686273
2801477
2510464
889953
889953
444860
2801477
889953
2686246
44088
2801477
2686246
2801477
2686246
2801477
889953
1168478
908819
1392231
889953
2801477
2686246
294631
2283025
2801477
2686246
1327981
251749
2801477
2686246
1335230
2801477
2023996
908819
455364
889953
2686246
2801477
908819
2801477
2801477
2686246
2801477
908819
889953
180504
444860
1033977
756275
2801477
2801477
1283077
756275
1197951
294631
2686251
754042
2301529
1340810
2023996
251749
2686279
889951
2686246
908819
268746
2801477
1197951
445688
244310
1340810
2686263
2801477
2801477
2801477
2801477
889956
948071
1197951
35241
2801477
2686246
2686246
251749
2801477
908819
2801477
1392231
294631
322019
1197951
2801477
908819
908819
908819
1197951
444860
2801477
756275
2686246
2801477
251749
2099637
2801477
2801477
2686246
908819
1197951
2801477
908819
322019
2686246
2301529
2801477
1283077
2686246
2801477
2801477
251749
948071
908819
2268578
2510464
455364
2686246
908819
2801477
2023996
2801477
2801477
2686246
2801477
908819
908819
2686246
2686245
908819
1197951
1392231
1536592
1392231
1542477
2801477
2686246
294631
294631
2801477
444860
1301279
2510464
2801477
2801477
908819
2801477
2801477
948071
1542477
455364
2686251
1137745
908819
2301529
2686266
2801477
908819
2686246
2801477
2686246
2801477
2686246
1392231
756275
2801477
1586714
1033977
948071
753084
455364
948071
1542477
2301529
889953
948071
889953
756275
2686246
2268578
754042
2686251
2801477
948071
2510464
2801477
948071
1815521
2686266
251749
2686247
2686251
2801477
2686273
1542477
2686246
2801477
2686246
754059
455364
2801477
2801477
1392231
1332145
1392231
1536592
2801477
2772074
754059
756275
1392231
2801477
2686246
2801477
2023996
754059
754059
1332145
2686246
2686246
2315608
2686246
2801477
2801477
251749
2801477
2801477
1168478
251749
2801477
1542477
455364
2801477
908819
2686246
2759724
2686246
1283076
754059
2510464
2801477
754059
2801477
2801477
754059
948071
2686246
2686246
322019
251749
2801477
2545435
2023996
322019
2545435
754059
2801477
322019
908819
754059
908819
2801477
294631
2686246
2545435
948071
908819
2686246
908819
948071
2801477
1026955
238854
754059
2545435
444860
2801477
444860
2686246
909297
2686246
251749
1084719
2801477
2801477
2743801
2686246
754059
2686246
2545435
1283077
2686246
294631
2743781
2545435
756275
2801477
2545435
2801477
2545435
2545435
908819
1814287
2801477
151539
908819
268746
2801477
2023996
889953
1542477
2686251
2545435
251749
2545435
2801477
1168479
1814287
169683
908819
444860
2801477
2801477
2801477
2686251
444860
754059
908819
889953
948071
555387
2801477
2686246
2100130
2801477
455364
2801477
444860
2743781
1536592
455364
2801477
444860
251749
2801477
2686246
2686246
169683
2686246
754059
2545435
756276
322019
455364
294631
2545435
1815522
2686246
2772511
2545435
889953
2545435
2801477
2545435
455364
1335230
2759724
1814287
2686246
2686251
294631
2801477
2801477
2686246
1127514
1327037
1917232
251749
455364
2545435
2801477
1883368
194699
194699
194699
2801477
194699
194699
455364
2801477
455364
2023996
2801477
2801477
2801477
2686246
2801477
2023996
251749
536466
2801477
2686279
10704
1557034
238854
455364
242527
2023996
455364
754064
2686266
194699
244310
251749
1325731
2741073
2686247
753085
1033977
194699
2023996
455364
2801477
455364
908819
2801477
908819
2801477
2801477
889953
2023996
194699
2686246
1880590
2801477
1557033
2801477
194699
1056831
2801477
2801477
444860
1335230
2545435
1536592
2686246
169683
2801477
908819
2801477
445686
908819
1557033
948071
455364
455364
2510464
238854
1327972
2801477
1536592
194699
2562175
1197951
1335230
194699
194699
2686246
194699
1557034
2801477
194699
194699
2023996
2686246
994601
2686266
194699
1536592
194699
749413
194699
444860
251749
2740802
2686246
251749
251749
2740802
1033977
455364
2801477
2740801
1815521
908819
2686246
2801477
455364
2686273
