2268578
455364
1586715
1340810
1883369
1815522
1340810
1586714
2268578
1586714
1586714
1340810
444860
2268578
1883369
444860
2268578
1815522
687803
455364
687803
1340810
455364
1586714
1340810
1815522
2268578
1883369
2268578
10847
2801477
1815522
1586714
1340810
687803
1340810
687803
1815522
1589733
1340810
1340810
1474867
1340810
1586714
455364
1340810
1340810
1815522
445684
687803
1815522
1815522
1815522
2801477
687803
1815521
1340810
1340810
2801477
444860
445684
1815522
1340810
1815522
445684
869724
1815522
1815522
687803
1340810
445684
1340810
1815522
869724
869724
444860
1340810
1815521
444860
687803
869724
869724
1815521
445684
687803
1340810
687803
1815521
869724
1340810
1815522
1815522
445684
1815522
1815522
1883367
1340810
10847
1883367
1883367
1883367
1883367
1883367
1883367
1883367
1883367
1883367
1883367
2801477
1883367
1883367
1340810
1340810
1340810
1340810
1815522
444860
445684
1815522
444860
1883367
1340810
1340810
1340810
1340810
1883367
444860
444860
1883367
1883367
1340810
444860
1883367
444859
1883367
1340810
1340810
1340810
1340810
1340810
1340810
1815522
1883365
1340810
444860
1340810
444860
2801477
251749
2801477
1340810
1340810
444859
1340810
2801477
1883366
1815522
1883367
445684
1883367
687803
1883367
1883367
444860
1883367
455364
445684
1815522
2801477
1340810
1340810
2801477
445683
1340810
687803
2801477
754037
1340810
1883367
1883367
2801477
687803
687803
1883367
444860
1340810
1883367
2801477
444860
1883367
1883367
455364
444860
1815522
754037
455364
1883367
1340810
2801477
455364
251749
1883367
444860
1883367
444860
1883367
754037
687803
382359
1883367
869724
1340810
1883367
2801477
1883367
687803
2801477
444860
1883367
1883367
754042
1883367
1883367
444860
1340810
1883365
1883367
1883367
2023996
2801477
1883367
1883367
2801477
1883366
1278402
869724
1883367
687803
2801477
1883367
2801477
444860
2801477
1883366
2801477
1586714
1883367
869724
2801477
2059380
2059380
1883367
1883367
1883367
869724
2059380
1883367
1883367
444860
1815522
444861
444861
251749
1883367
1883369
754037
869724
1883367
754037
1883367
869724
869724
2027899
1883367
444860
251749
2027899
754037
1883367
754037
1883367
1278479
1278479
1883367
869724
1883367
869724
2801477
1883367
754037
445685
1340810
2801477
1557033
2801477
1586714
444860
455364
1792289
2027899
2801477
869724
1883367
1586714
869724
1586714
251749
1278479
869724
455364
445685
869724
444860
754037
2801477
889951
1883367
1340810
251749
1340810
1340810
444860
1883369
2801477
455364
754042
1278479
251749
753085
444860
1883367
1340810
869724
1883367
2801477
1278479
2801477
251749
455364
444860
2023996
869724
279383
444860
444860
1589733
444860
2801477
2801477
251749
251749
251749
251749
1586714
869724
444860
444860
1883367
444860
444860
754037
2801477
1586714
444860
445683
1340810
322019
1278479
2023996
1278479
251749
756275
1586714
1278479
1589733
444860
1883367
869724
2801477
1586714
754038
2801477
444860
1278479
754042
1278479
2801477
444860
444860
2801477
1883365
444860
444860
2801477
1278479
869724
869724
2801477
444860
2801477
1586715
1340810
2059380
444861
1278479
444860
444860
1883367
1278479
444860
444860
2801477
1586714
455364
444860
1278479
869724
445683
455364
869724
2686279
2801477
455364
869724
2801477
455364
2023996
2801477
1586714
251749
1586714
869724
869724
756276
754037
1278479
1278479
1278479
2801477
869724
2801477
2686279
251749
1586714
455364
1278479
1278479
455364
869724
2801477
1340810
444878
1586715
1278479
2801477
1883369
1883369
869724
1883367
1278479
2801477
754042
754042
1883369
1883367
2801477
455364
444860
1883367
754042
869724
754042
444860
869724
1883365
869724
869724
2801477
1883367
1340810
444860
2801477
2023996
251749
455364
1278479
2801477
754042
1278479
1278479
455364
1883365
251749
2023996
1883367
2801477
455364
869724
1883367
869724
2801477
1883367
455364
455364
2801477
2801477
869724
1340810
279383
1278479
1278479
455364
445685
455364
444860
2023996
2801477
1278479
1278479
2686279
1883369
2801477
1278479
1586714
2801477
455364
869724
2801477
2801477
1586714
2801477
1883366
2801477
1586714
1278479
1586714
2801477
2059380
869724
455364
2801477
2023996
2023996
2801477
2801477
2801477
455364
2801477
555387
251749
2023996
1586714
1883365
1340810
1586714
1586715
1586714
455364
1278479
869724
455364
1278479
1586714
2510464
251749
251749
869724
2801477
869724
2023996
2801477
1883367
445685
2801477
1586714
455364
1883369
1278479
2801477
445684
2801477
444859
2801477
1883369
2801477
2801477
2027899
445684
2027899
2801477
1340810
2027899
445684
2023996
869724
2801477
455364
2027899
869724
2027899
445684
2801477
869724
2801477
2686246
754059
2801477
2801477
2027899
2801477
2801477
869724
1273711
869724
1883369
869724
2027899
1278479
445684
455364
455364
2801477
2027899
754042
1586714
2801477
445684
2023996
869724
1278479
869724
1586715
869724
1278479
2059380
2801477
869724
2801477
869724
445684
2510464
869724
869724
445685
1278479
2023996
2023996
1883367
2023996
1586715
445684
2801477
1883367
2801477
2801477
322019
2801477
2740801
2801477
869724
2801477
2801477
251749
1586714
251749
2023996
455364
445684
2510464
2801477
1278479
2686279
445684
1586714
869724
1883365
2686279
444860
455364
2801477
251749
1586714
455364
445683
1586714
2686246
382359
2801477
1474867
1278479
1815522
382359
2801477
2099637
2801477
445684
251749
1586713
1586713
1586714
2801477
754042
1586715
2801477
445684
2801477
2023996
2023996
869724
2801477
251749
455364
2023996
445684
1493511
1883369
1493511
445685
1883369
251749
2801477
1883366
2686246
445684
444860
2801477
445684
1883366
2801477
2686246
2801477
2801477
2801477
1883365
455364
2801477
2268578
2801477
869724
2801477
2027899
1883369
1340810
754042
1883369
2801477
2510464
2023996
445684
1586714
1586714
2510464
1883365
1586714
1586714
455364
2686246
1586713
2023996
1278479
1273711
2801477
2801477
382359
2801477
1278479
455364
2801477
1883366
1340810
2801477
1278479
2801477
1278479
2027899
2059380
754042
242527
445683
2801477
1883367
2801477
754042
2686246
445684
445684
445684
1586715
445684
754042
445684
2801477
2801477
2801477
445685
251749
2023996
2801477
2686247
431892
445684
1586713
756275
455364
2301529
1493511
2686246
1493514
455364
2801477
455364
2801477
444860
2801477
1586713
2801477
869724
2801477
445684
2023996
2801477
869724
2801477
2686246
444860
444860
251749
1883365
1815521
455364
1815521
2023996
2801477
2801477
2686246
2801477
1278479
1589733
2801477
1589733
1589733
445688
1278479
2801477
1278479
1278479
251749
2510464
2023996
2023996
455364
1589733
455364
2686251
1589733
1589733
445684
1589733
1493514
444860
445684
2801477
756275
1586715
1815521
1815521
1586714
2023996
2686247
445684
2801477
869724
2023996
2801477
2023996
2801477
2801477
455364
455364
1589733
948071
2686279
2510464
2740801
1589733
445688
2686246
2686245
2686246
2201437
382359
1278479
446529
754042
1586714
445685
1493511
1586713
1493511
1586714
1586714
1493511
2027899
2801477
756275
2801477
2801477
455364
444860
2801477
1278479
2510464
2801477
2801477
756275
756275
455364
455364
455364
1340810
1586714
2801477
2510464
1557033
1586714
1493511
2801477
1586713
2801477
445684
445684
2686246
2801477
2023996
2801477
455364
2801477
2686246
2801477
455364
1278479
1586714
2801477
2801477
445683
2023996
2510464
756275
756275
2801477
444860
2801477
1340810
2510464
2801477
1586715
1589733
2201437
445684
2801477
445684
455364
536444
455364
2801477
2801477
1589733
2686246
445684
2023996
444860
1493511
948071
1493511
2801477
455364
251749
756275
754059
2686246
756275
455364
444860
756275
445684
1586713
1586714
444860
754038
2686246
2027899
2686246
455364
756275
1883365
2686246
445684
444860
2801477
251749
2801477
1586714
445683
268746
2740801
1586714
756275
2801477
756275
2801477
445684
445684
2801477
2510464
455364
2801477
2686246
754042
455364
2201437
382359
445684
754039
445684
445688
1493511
2027899
444860
2686247
2801477
2686246
2023996
2801477
889951
2545435
1033977
1033977
2686246
756275
2686251
1557033
2801477
242527
445684
1586714
382359
455364
2801477
2545435
756275
445685
455364
2801477
445684
382359
2686246
445684
445684
2801477
445684
2686246
445684
444860
756275
2268578
2801477
2801477
455364
2801477
444860
2686246
2510464
445684
2801477
445683
2201437
756275
948071
2686246
889951
1536592
1586714
455364
445684
756275
756275
2801477
2686251
445684
1557033
2268578
1586713
382359
455364
756275
445684
445683
2801477
2686246
2801477
251749
1493511
2686246
455364
1493511
2801477
1493511
756275
268746
536466
268746
444860
756275
444860
2801477
1589733
444860
455364
2686247
2686246
444860
268746
445686
445684
2801477
444860
444860
445688
445686
445686
2023996
2686246
2686246
445686
445684
2023996
1493511
1557033
2801477
382359
2801477
2801477
322019
455364
1883366
2801477
2801477
2801477
2801477
1883366
2801477
268746
251749
382359
1589733
2801477
2801477
754041
754041
1586715
1586715
756275
1557033
756275
1586715
455364
756275
1536592
2801477
251749
1586715
1586714
1586715
1586713
889953
2686246
1586715
2801477
2801477
1278402
756275
1586714
445684
444860
445688
756275
2301529
455364
948071
455364
444860
2301529
1278479
889951
445684
756275
756275
908819
2740801
251749
1557033
445684
455364
362830
2023996
444860
756275
455364
444860
455364
444860
444860
2686245
444860
756275
756275
2686247
869724
754042
2801477
756275
2686246
756275
756275
2201437
2801477
756275
2801477
2686246
2059380
756275
2510464
1589733
294631
1273711
445684
1589733
756275
294631
756275
1589733
1589733
1589733
455364
251749
44088
889951
1493509
455364
445684
1493511
444860
1589733
445688
756275
756275
756275
445683
889951
320849
1586715
1557033
2801477
446529
2801477
756275
445684
754041
2023996
445684
444860
2801477
251749
1493511
444860
2801477
2686245
445688
2686246
756275
251749
251749
2801477
2686246
2801477
756275
251749
1586715
2801477
756275
445685
2686246
1586715
2686247
455364
1589733
948071
948071
2801477
2023996
2059380
251749
1815522
455364
1536592
1586715
455364
1589733
929832
455364
948071
2801477
445688
756275
756275
1586715
455364
1536592
2740801
573174
2801477
445684
756275
756275
756275
2686246
2686246
2801477
2801477
2801477
444860
756275
2686246
756275
445684
756275
2023996
2686246
455364
2027899
2023996
2023996
1589733
294631
948071
294631
2023996
2023996
1589733
1589733
754041
1589733
2023996
2023996
2023996
2023996
2801477
2801477
2023996
1586715
455364
2023996
251749
2801477
2801477
445688
948071
948071
445688
948071
445688
445688
445688
445684
2801477
948071
445688
1589733
756275
445685
2686246
756275
2801477
2801477
2801477
2801477
2027899
445685
2027899
2027899
2801477
455364
2027899
2686246
2801477
455364
1586715
2686246
268746
756275
756275
2023996
2801477
756275
2023996
455364
455364
2801477
2801477
2801477
948071
756275
2510464
2740801
2740801
322019
2059380
2801477
756275
948071
445688
1815521
455364
445688
2740801
455364
1815521
2801477
251749
2740801
2801477
2740801
444878
2686246
2740801
2686246
2023996
756275
1586713
756275
756275
2801477
446529
693272
2027899
2023996
1586714
444860
455364
1586714
756275
2801477
756275
756275
251749
2801477
2740801
2686246
1586714
756275
1586714
2801477
1586714
2686246
2686246
1586714
455364
294631
2686246
455364
251749
1536592
445688
2023996
948071
1586713
2053653
948071
445684
948071
948071
2740802
1586713
2740801
756275
2686246
756275
756275
948870
444860
1340810
756275
238854
2801477
1586715
445688
251749
756275
1557033
2740802
1493511
444859
2801477
616674
2686246
2686246
756275
2027899
455364
455364
756275
2801477
2686246
2510464
2801477
2686246
455364
2801477
2801477
2801477
756275
455364
2801477
756275
1168479
616674
2801477
2801477
2801477
1589733
756275
445686
2801477
756275
2029657
1589733
754042
2029657
2801477
1589733
1168479
756275
1327982
2801477
948071
1542477
2801477
756275
2801477
756275
756275
1586715
444876
2740801
754042
2686246
2686246
251749
2023996
1269028
1586713
2027899
2801477
244310
2686246
455364
2801477
756275
242527
756275
2801477
2059380
1542477
455364
2801477
756275
1557033
2686246
1589733
2510464
455364
2686246
1586713
948071
2027899
2510464
445685
1589733
2740801
445684
2027899
2678601
2027899
2027899
1586715
455364
445684
1586715
1586713
455364
756275
2023996
616674
2801477
2801477
1137745
446529
2686247
1586715
754041
756275
1557033
2801477
2282904
756275
756275
2099637
455364
2801477
1586715
455364
2027899
1586715
2686251
251749
445684
2027899
2023996
756275
455364
756275
1033977
2740800
2686246
948071
251749
2027899
251749
445688
445688
1269028
251749
445688
948071
2023996
2023996
2686246
2801477
445688
1536592
948071
445688
756275
445688
756275
2801477
2027899
445688
251749
455364
2686247
455364
889953
687803
455364
687803
2182403
2686246
2740801
1536592
889953
616674
1883368
2027899
2027899
1586715
948071
35241
2023996
1573458
2182403
687803
2801477
754059
35241
2027899
909297
1586713
1586715
2059380
2282904
2650877
756275
754041
455364
1033977
2801477
2801477
948071
948071
948071
455364
251749
2740801
2686247
455364
948870
2027899
294631
2801477
756275
2740801
756275
455364
1586713
756275
889951
2801477
2801477
444860
169683
2282904
2801477
1586713
446529
1536592
2801477
754039
1536592
756275
445684
2801477
2801477
251749
2801477
948071
2801477
1586714
756275
2023996
1586713
444860
445684
2027899
1586715
756275
756275
445685
455364
294631
2268578
2740801
2510464
948071
756275
948870
445688
2801477
2740801
455364
455364
2801477
445684
2801477
2545435
948071
756275
1536592
2743781
1536592
754059
948071
754042
2801477
754042
169683
445688
2268578
756275
2801477
2741072
2510464
445688
2027899
948071
2801477
2801477
455364
756275
2801477
2510464
756275
948071
1589733
948071
908819
1493511
35241
948071
948071
948870
756275
455364
169683
2740801
445688
455364
251749
2801477
948071
169683
1493511
889951
1586715
2801477
251749
2686246
756275
2801477
756275
756275
455364
455364
2023996
251749
756275
444860
455364
2023996
2686246
1557033
2801477
2801477
2801477
2686246
2510464
2027899
2686251
1536592
446529
889953
268746
755272
2027899
2027899
2027899
2027899
322019
948071
2686251
444860
455364
1586713
948071
756275
2027899
2801477
445688
2801477
948071
2801477
2801477
948071
2801477
2801477
756275
2801477
756275
1486472
948071
948071
455364
445688
455364
244310
1586715
445688
1567472
1536592
2801477
1332145
1332145
2027899
754042
756275
2027899
2801477
2801477
1332145
445688
908819
1883365
244310
754059
322019
455364
2801477
455364
1883366
455364
244310
445684
1586713
948071
2686246
2027899
948071
2023996
2686247
2027899
244310
948071
1586715
2686273
2027899
756275
1557033
1493511
1474867
244310
2801477
2759725
1493511
2801477
1586713
2686251
616674
2023996
455364
251749
2027899
1269028
2801477
2801477
2801477
1493511
2686247
2027899
909297
1586715
1536592
754042
756275
294631
445688
2740801
2545435
2686246
2801477
445688
2510464
2545435
2027899
2027899
1536592
2740801
2545435
756275
455364
2801477
2686246
2545435
455364
2545435
2740801
2027899
2740801
1586714
455364
1536592
1273711
455364
251749
49964
2545435
756275
948071
1586713
251749
1586715
2801477
2027899
446529
1536592
754042
1536592
756275
2686246
1557033
2027899
455364
2801477
2801477
1557033
948071
1536592
756275
2686246
1335230
948071
2740801
2545435
2801477
2801477
948071
756275
1273711
2740801
2027899
1589733
948071
2740801
948071
756275
756275
756275
2801477
2027899
2027899
2301529
1586715
2027899
2801477
756275
948071
756275
2740801
754042
756275
455364
2545435
948071
1278479
2027899
2545435
756275
2023996
2545435
2801477
2510464
455364
2740801
756275
1084719
455364
1586714
2801477
2740801
2023996
2027899
455364
2023996
2686251
756275
294631
455364
2562192
2686251
2801477
909297
2686273
2801477
2686246
1557033
2801477
756275
445685
238854
444860
445684
445684
2686246
1586715
2740802
948071
455364
35241
455364
455364
2282904
2545435
2801477
948071
2740802
2510464
455364
2027899
49964
35241
756275
948071
445684
756275
438482
753085
2801477
948071
2545435
909297
438482
2545435
1084719
2545435
2027899
35241
2801477
756275
1586714
2686251
2801477
2801477
455364
2027899
2801477
948071
756275
1586715
2686251
754037
1536592
2740801
948071
445688
1335230
2801477
948071
445692
1586713
169683
1586714
2510464
251749
2740801
455364
1815521
251749
754059
1586713
455364
35241
754059
1586715
455364
2562192
756275
1340812
754042
455364
2801477
756275
2268578
2740802
2562192
445688
1493511
455364
948071
2686251
1586715
2801477
880162
756275
251749
444860
756275
455364
455364
2801477
2027899
2801477
445688
756275
455364
2801477
756275
2801477
455364
445688
2801477
2801477
251749
756275
1335230
1493511
2027899
455364
455364
889951
1332145
2801477
455364
1883366
948071
2027899
46021
455364
455364
756275
1586715
2686246
2801477
756275
455364
948071
1883366
455364
2801477
889951
889951
889951
2801477
889951
889951
889951
2801477
889951
756275
1033977
889951
2027899
2027899
889951
1536592
889951
2743781
889951
889951
1150991
2686247
889951
1332145
2743781
889951
2740801
2801477
889951
889951
889951
754059
2686246
2027899
889951
889951
756275
889951
2801477
889951
756275
889951
455364
889951
455364
889951
889951
889951
889951
889951
455364
889951
889951
889951
889951
756275
455364
756275
2801477
1493514
948071
455364
455364
753085
2801477
909297
294631
869724
754067
948071
1536592
948071
1542477
616674
455364
2023996
948071
2801477
909297
251749
948071
2027899
66797
756275
948071
1536592
948071
455364
455364
1586715
455364
347327
2686251
948071
2686246
616674
455364
2027899
2023996
2599886
948071
948071
2801477
756275
889951
756275
889951
756275
756275
2562192
444876
2801477
756275
2801477
1586715
2027899
455364
889951
455364
2023996
2510464
948071
889951
2801477
279006
2801477
756275
2545435
754059
2545435
444860
754059
2740801
1883365
169683
1283077
2027899
754041
2027899
754042
1586715
2801477
756275
2545435
2545435
1586715
1586713
1283077
754059
546805
2545435
2562192
2562192
2027899
2545435
2740801
2545435
754059
908819
2740801
1586715
754059
908819
2510464
948071
948071
756275
948071
756275
2099637
2801477
616674
2740802
756275
2027899
2740802
756275
756275
756275
756275
754039
2099637
2801477
1586714
2686273
1458842
1137745
2027899
2801477
2743781
756275
455364
756275
2801477
1392231
444860
2801477
2801477
1335230
756275
1586715
756275
909297
2282904
1586713
455364
444860
2027899
2686246
455364
2801477
455364
1586713
444860
455364
322019
1586713
455364
455364
251749
1586715
455364
869724
754059
948071
754059
869724
948071
754059
756275
948071
948071
2027899
1332145
756275
2801477
2801477
908819
869724
2686251
251749
756275
948071
948071
2099637
908819
754059
754059
251749
754059
2099637
2545435
2740801
1168479
445688
2740801
754059
455364
756275
2801477
754059
2023996
756275
1557033
2099637
251749
754059
2801477
756275
754059
2801477
2301529
948071
754059
948071
251749
908819
251749
754059
754041
2801477
1168478
2099637
754059
948071
754059
869724
2740801
2740801
444876
948071
2801477
1332145
754059
444876
455364
2801477
2562192
754059
869724
754059
2740801
445688
869724
754059
754059
754059
1332145
754059
1026955
754059
455364
2801477
455364
756275
948071
756275
445684
1883368
1332145
1332145
754059
754059
444860
573173
455364
445688
2545435
754059
2099637
754059
754059
1332145
948071
2099637
2801477
948071
754059
754059
1332145
908819
1332145
948071
1332145
244310
948071
2743781
869724
244310
754059
2099637
948071
2801477
2801477
2099637
2510464
909297
1332145
754059
948071
908819
2801477
2545435
2099637
2801477
2027899
2510464
2686246
455364
2801477
2686246
1586715
1586713
2801477
756275
2099637
2027899
455364
948071
948071
2099637
2801477
2801477
2801477
2562192
445684
2801477
268746
455364
455364
756275
1137745
756275
2801477
756275
948071
2027899
2027899
2099637
948071
2801477
1586714
455364
948071
455364
251749
2740801
455364
2801477
2801477
455364
756275
2801477
1586715
1586713
2801477
909297
2740801
2801477
1392231
756275
1033977
1335230
1474867
2283026
909297
909297
242527
909297
909297
2801477
2740801
2562192
909297
909297
756275
1586713
169683
889953
2801477
2801477
1332145
1536592
455364
948071
169683
2510464
756275
753085
242527
455364
444860
754042
1392231
2484217
1589733
1557033
754067
2027899
169683
756275
455364
756275
2027899
948071
889953
2023996
753085
756275
2027899
889953
1332145
756275
169683
2686251
445684
2510464
2027899
251749
756275
754059
2801477
2801477
251749
687803
251749
948071
687803
889953
2801477
2510464
455364
756275
909297
2686251
446529
445684
687803
756275
687803
455364
2562192
2801477
754067
889951
948071
687803
687803
2027899
251749
2027899
2686251
754041
756275
687803
753085
948071
2023996
1586715
455364
753085
455364
455364
753085
948071
753085
756275
1586713
753085
756275
948071
2801477
1137745
756275
2801477
444860
1335230
948071
1586713
455364
536474
754041
455364
2801477
2740801
2740801
2801477
455364
2686246
2686279
2801477
2027899
2740801
2740802
2801477
909297
756275
948870
2027899
948071
756275
2801477
1838083
455364
948071
2801477
2099637
756275
2686251
444860
461711
754059
948071
455364
756275
2801477
2027899
756275
908819
1586714
948071
2027899
251749
616674
445686
2686246
756275
2686251
754042
687803
687803
251749
754059
2099637
2801477
948071
2686246
2686246
756275
455364
444860
1335230
908819
756275
1815522
2801477
948071
948071
2510464
2023996
754041
1197951
948071
948071
1815522
1586713
756275
1586714
948071
2023996
2801477
756275
756275
756275
756275
756275
909297
1815522
948071
1815522
1814284
2740801
909297
1815522
455364
1542477
2023996
461711
445684
1197951
2801477
948071
1332145
756275
455364
2801477
2801477
455364
754059
2740801
455364
2801477
2023996
455364
756275
909297
455364
2079426
251749
1815522
2023996
756275
2510464
948071
756275
1332145
2801477
2686251
889951
1332145
1332145
756275
455364
251749
2099637
251749
908819
2801477
455364
455364
908819
455364
754059
756275
294631
1883371
754067
294631
322019
1586715
1332145
889951
948870
1150991
756275
455364
754059
1536592
948071
455364
35241
2801477
908819
948071
948071
756275
948071
2801477
756275
754042
1586714
756275
754059
948071
908819
1150991
444860
455364
948071
455364
948071
455364
885867
573174
294631
756275
908819
889951
885867
1392231
2027899
455364
2686251
2686246
455364
756275
754059
1137745
573174
230158
2801477
2801477
756275
2510464
455364
251749
1814287
908819
909297
2686251
2686251
238854
869724
756275
756275
455364
2686246
455364
2801477
909297
1137745
2023996
756275
1586715
1137745
573174
66797
909297
673376
889951
756275
908819
889953
2740801
10761
948071
885867
2686246
885867
242527
909297
756275
322019
35241
948071
1586713
2301529
2801477
948071
1332145
948071
1536592
2099637
455364
754037
948071
948071
455364
2686246
2801477
455364
2801477
2686246
251749
455364
455364
445696
756275
1586713
455364
948071
2801477
880159
251749
2099637
455364
948071
251749
889951
244310
2099637
347327
948071
2099637
455364
2099637
1392231
948071
2801477
2027899
889951
2099637
2283261
1493511
444860
455364
455364
279383
2510464
2801477
889951
444878
2099637
756275
2801477
294631
2801477
444878
455364
260149
10689
2099637
2099637
444878
2801477
948071
2099637
444860
2099637
948071
2801477
1586714
2053653
251749
455364
251749
455364
2099637
2686251
2801477
1586715
2023996
2023996
908819
455364
889951
948071
2801477
2099637
880159
2099637
948071
2099637
1392231
2686246
2686246
889951
948071
444878
322019
948071
754059
889951
455364
1335230
444859
889951
1536592
446529
455364
756275
1586715
908819
756275
2023996
1586715
756275
1392231
2686246
756275
2686246
2027899
756275
908819
948071
2801477
948071
909297
753084
756275
444859
1586713
169683
889951
753084
754059
2027899
909297
1557033
753084
2801477
2801477
455364
1586714
455364
251749
2027899
909297
455364
948071
1026955
754059
446529
948071
2283025
1026955
455364
251749
2801477
1026955
251749
753084
756275
1335230
753084
756275
2801477
753084
756275
889953
455364
242527
455364
948071
1026955
1838074
455364
2301529
756275
948071
2801477
469660
948071
909297
455364
2099637
1493514
909297
1325731
455364
1880590
948071
1392231
2801477
948071
251749
268748
2070181
2801477
909297
251749
181082
756275
455364
753085
908819
242527
948071
687803
444860
754037
1586714
445688
268746
1880590
10682
908819
753085
2801477
169683
169683
2283025
169683
169683
2027899
2023996
696472
169683
169683
294631
2686246
536466
2283025
2801477
169683
1814284
169683
169683
948071
1536592
455364
169683
446529
169683
2283025
169683
2510464
169683
169683
2801477
169683
909297
169683
2801477
455364
446529
1137745
169683
889951
444860
169683
455364
2283025
2027899
455364
889951
455364
2686246
455364
294631
169683
756275
169683
169683
455364
2283025
169683
169683
756275
1332145
756275
756275
756275
948071
35241
251749
1586713
908819
1137745
754059
2023996
280701
2801477
251749
455364
756275
948071
756275
455364
889951
948071
1332145
1586713
1493511
756275
1586714
1493511
889951
756275
1586713
251749
2686246
948071
2801477
2023996
908819
1493511
2562192
909297
2801477
948071
2686246
294631
1493511
2801477
1536592
2686251
455364
756275
1493511
1332145
444860
1273711
2740801
754059
754059
756275
1586715
756275
2686251
1332145
889951
1493511
455364
2801477
244310
1137745
948071
948071
2801477
1332145
756275
616674
445688
908819
754059
948071
2686246
756275
2686246
756275
1340810
251749
1340810
2686246
1197951
889953
880159
2099637
1586715
35241
35241
242527
756275
889953
1335230
455364
909297
756275
35241
909297
35241
756275
2483719
1557033
889953
1033977
2686251
948071
889951
1542477
455364
2801477
455364
1542477
753084
1815521
496874
948071
2686246
1557033
35241
1197951
948071
1335230
2686251
2801477
1332145
756275
1880590
1880590
889953
948071
2740802
1168479
169683
169683
948071
455364
1168479
754042
754042
2801477
756275
2686246
948870
169683
754067
2686279
908819
756275
444860
2686246
909297
948071
169683
2510464
2801477
2282904
455364
2801477
948071
756275
169683
909297
908819
909297
2801477
251749
756275
948071
1168479
2801477
909297
455364
438482
169683
169683
2099637
2740802
754067
948071
1542477
880159
2686246
2743781
1332145
948071
948071
2491321
756275
1586714
2484217
909297
908819
455364
756275
2801477
2801477
445688
908819
2484217
948071
1332145
2740801
1536592
756275
754059
1542477
1557033
754059
756275
908819
2801477
2801477
948071
756275
948071
948071
1332145
889951
1586713
908819
1332145
2740801
948071
2740801
2545435
2510464
1116482
2801477
2099637
455364
455364
455364
2510464
1586713
2740802
2801477
294631
455364
756275
2801477
294631
948071
1542477
948071
2801477
2740802
948071
1814284
2801477
455364
1586715
1542477
294631
756275
455364
889953
1392231
1137745
294631
455364
1392231
2686246
754067
1586713
251749
754059
455364
756275
908819
2686246
1332145
2801477
251749
2801477
2023996
1332145
756275
2801477
754042
2801477
756275
251749
908819
1586715
756275
1536592
455364
251749
2743781
1586713
909297
1137745
889953
754042
948071
754041
1815522
2686251
251749
2545435
2801477
1586715
1589733
948071
2740801
2686251
1332145
909297
2801477
1536592
2740801
1332145
2023996
1815522
756275
1332145
1332145
1586714
169683
948071
455364
1573458
756275
948071
2740801
2740801
2801477
1536592
1542477
445692
2545435
455364
251749
2740801
1586715
1332145
455364
2686251
909297
2801477
2545435
889951
2686251
294631
382262
2686251
889951
2801477
1586715
455364
2686251
756275
455364
754041
909297
1920310
2740801
1586715
242527
880159
756275
754067
1557033
294631
948071
756275
2740801
251749
1586715
169683
2801477
2510464
1332145
2686246
1168479
455364
889951
1969841
2686251
889951
455364
908819
2686251
1586715
1586715
444860
2801477
1335230
1273711
948071
908819
2801477
455364
948071
756275
948071
948071
2801477
948071
948071
455364
455364
756275
948071
2301529
948071
455364
948071
2801477
251749
948071
2686246
455364
2686246
756275
455364
2801477
1891703
948071
948071
756275
948071
909297
908819
756275
756275
948071
948071
889951
948071
455364
455364
756275
2510464
948071
948071
948071
455364
2686246
948071
948071
948071
251749
455364
2099637
1273711
756275
2027899
948071
2099637
908819
455364
948071
948071
756275
909297
1335230
2545435
909297
2801477
889951
2545435
754059
1332145
2545435
2545435
2545435
294631
2545435
1033977
1137745
754059
455364
889951
2740801
2545435
1883371
948071
35241
238854
2545435
889951
238854
2545435
2545435
1474867
754059
2686246
2545435
2545435
2023996
2545435
2545435
49964
2545435
754059
908819
948071
2686246
948071
2545435
889951
2545435
889951
948071
754059
756275
2545435
2801477
242527
909297
445688
445684
2545435
2545435
445688
948071
445684
754059
2545435
2545435
1542477
2545435
908819
1586713
889951
908819
754059
2545435
445684
1542477
2545435
756275
948870
889951
889951
889951
754059
2545435
1056831
756275
2545435
754059
948071
2545435
948071
2801477
2545435
2801477
1586714
2545435
2801477
1332145
948071
1586713
2686247
889951
2545435
2545435
2801477
754059
756275
2545435
948071
909297
2027899
2801477
756275
754041
2801477
948071
909297
1332145
2686246
455364
1033977
2686251
1033977
756276
908819
2801477
948071
1332145
1586715
2041344
756275
909297
2686246
2801477
753084
754067
455364
908819
1536592
455364
948071
908819
756275
455364
756275
908819
908819
455364
908819
2801477
909297
2027899
756275
908819
909297
756275
908819
889953
1536592
909297
2283025
2027899
908819
756275
756275
754042
2686246
2053653
756275
2545435
908819
908819
2801477
1137745
2801477
1137745
455364
2801477
756275
455364
756275
2601643
2510464
2801477
756275
1137745
756275
2801477
1586713
431892
753085
294631
948071
251749
889951
909297
2801477
455364
1495285
2801477
1883365
1332145
2023996
1493511
445700
754059
445684
2315608
251749
909297
909297
948071
948870
1079998
948870
909297
445692
169683
169683
1026955
2801477
431892
169683
1586714
2027899
2484217
909297
754059
909297
909297
455364
909297
908819
908819
909297
908819
1332145
2740801
948870
2053653
889951
455364
455364
2023996
948870
889951
445688
1883365
889951
2801477
754067
1335230
1327983
948071
909297
889951
909297
1536592
909297
2801477
908819
1332145
169683
2099637
242527
1542477
242527
431892
445684
1332145
948071
2740801
908819
431892
1586715
754059
2801477
1033977
889951
1536592
889951
2545435
948071
754067
1586713
2545435
1883366
1542477
948071
756275
2801477
1542477
169683
889951
2041344
754059
2315608
753085
889951
2801477
1335230
948071
1332145
1332145
2686246
2801477
754059
1033977
1026955
2801477
2315608
2801477
909297
948071
2678601
948071
909297
754059
2740801
536444
948071
2053653
2686246
2023996
2801477
948071
1332145
754042
1332145
1542477
885867
2801477
455364
1332145
2801477
251749
1137745
1137745
260149
455364
322019
455364
2510464
2510464
251749
2801477
756275
455364
1137745
251749
2801477
444860
2686246
1536592
1586715
455364
455364
2315608
756275
756275
2801477
1586715
756275
908819
2053653
444860
1586714
2545435
1880590
2801477
455364
908819
455364
909297
909297
948071
909297
2801477
948071
1197951
1542477
1197951
1197951
2686251
2686251
2801477
948071
756275
2801477
1197951
948071
2686266
2801477
455364
1197951
35241
1332145
2024264
1197951
909297
294631
455364
908819
455364
1197951
251749
1883365
294631
455364
756275
2801477
1586714
1137745
908819
948071
948071
2686251
756275
1197951
1197951
2282904
1542477
909297
1542477
948870
754059
885867
1197951
1332145
948071
948071
754059
455364
2053653
948071
2801477
948071
756275
445688
445688
948071
455364
754059
754059
1332145
2801477
948071
754059
445688
754042
2315608
1340810
1332145
909297
754059
1493511
885867
1332145
908819
948870
754059
1586713
889951
1391659
889951
889951
754059
754059
754059
455364
1332145
753085
455364
756275
322019
2686266
754059
63118
908819
455364
1332145
1493511
948071
889953
455364
455364
909297
908819
909297
169683
2801477
2686246
1026955
2801477
754059
909297
2801477
1838074
909297
455364
756275
2510464
1493511
169683
1392231
1026955
2801477
455364
455364
35241
1335230
909297
455364
1493511
754041
2801477
909297
2686246
1586714
1392231
754067
2510464
909297
2686246
2801477
1536592
909297
455364
909297
1026955
1026955
2801477
1493511
455364
616674
889951
2801477
2545435
908819
1026955
2686246
754067
2801477
1137745
2041344
948071
1586713
2545435
948071
948071
2686246
754041
908819
1137745
1357715
756275
948071
2801477
455364
2801477
2053653
2801477
455364
1109714
445688
445688
455364
2545435
754059
1335230
2801477
665032
1557033
455364
1586713
948071
756275
1474867
948870
251749
909297
908819
445696
251749
445696
455364
909297
756275
455364
1392231
251749
754041
455364
756275
1586715
2023996
1137745
909297
889953
251749
909297
2740802
2283025
2740802
909297
616674
1586713
753085
1137745
2801477
455364
756275
251749
756277
251749
1815521
2686247
2283025
444860
2686246
1586713
2268578
1536592
2740801
444860
1493511
756275
1557033
1325731
1536592
756275
754037
455364
756275
1586715
455364
756275
2283025
455364
756275
948071
455364
446529
756275
1536592
1815521
1557033
2041344
756275
2283025
869724
869724
889951
948071
948071
948870
948071
455364
242527
948071
948071
1883371
455364
251749
948071
754059
756275
948071
948071
948071
948071
455364
754059
1137745
948071
753085
948071
251749
455364
455364
438482
2801477
2801477
948071
948071
2591403
2801477
948071
455364
2801477
1586715
1493511
869724
869724
948071
756275
1273711
869724
753085
1536592
1273711
948071
756275
251749
869724
948071
756275
948071
1883371
948071
455364
251749
909297
1137745
869724
869724
948071
455364
948071
948071
948071
885867
2041344
869724
948071
948071
948071
948071
1137745
948071
948071
869724
2041344
645664
948071
2015833
2801477
455364
754041
948071
948071
2801477
948071
2801477
885867
10761
948071
948071
753085
1332145
169683
169683
169683
169683
169683
169683
169683
880161
2059380
455364
169683
169683
169683
169683
169683
169683
169683
756275
1335230
2545435
169683
1880590
948071
169683
455364
908819
169683
909297
169683
2740801
169683
169683
455364
455364
169683
169683
169683
169683
169683
908819
169683
169683
169683
1137745
169683
169683
169683
169683
169683
908819
169683
169683
2801477
889951
169683
2801477
169683
169683
169683
169683
1586714
169683
169683
948071
169683
169683
2099637
169683
169683
455364
169683
169683
169683
169683
908819
169683
169683
169683
169683
455364
455364
169683
169683
169683
169683
169683
169683
2070181
169683
2545435
756275
169683
169683
169683
169683
169683
908819
169683
2801477
169683
2053653
169683
169683
169683
2662283
169683
169683
169683
169683
1033977
1493511
2510464
169683
169683
169683
169683
2801477
756275
756275
1335230
169683
455364
445700
756275
169683
169683
948071
169683
169683
2053653
348137
205877
2686251
948071
455364
948071
2510464
2593333
455364
889951
251749
455364
909297
322019
251749
455364
2041344
2801477
2027899
1586714
756275
455364
756275
948071
1586713
756275
251749
251749
251749
2801477
948071
455364
948071
322019
2686246
2315608
1493511
455364
2801477
1586715
756275
2801477
2801477
35241
2772511
1026955
889951
251749
2545435
908819
455364
251749
698487
1392231
1026955
1026955
889951
1493511
1814284
948071
756275
251749
2740801
1586715
948071
169683
455364
948071
880162
1536592
754038
2801477
1917232
948071
889951
1137745
2772511
754041
1557033
2041344
455364
455364
251749
889954
1026955
455364
169683
754059
169683
1883365
1026955
1880590
2740801
251749
322019
1493511
1586715
1917232
1917232
2686250
1026955
909297
948071
756275
948071
268746
251749
2801477
455364
2801477
1493511
754042
909297
2510464
294631
754038
2545435
1493511
169683
2301529
756275
2801477
908819
2740801
754059
483266
2801477
1137745
1137745
483266
754064
455364
1983447
1332145
455364
2686246
2801477
1033977
2801477
889953
445688
2686246
455364
2801477
455364
2593333
2801477
756275
2678601
1278402
756275
455364
455364
2801477
2053653
2740802
251749
908819
483266
2593333
1493508
455364
756275
1332145
885867
753085
889953
754067
2801477
1880590
1332145
754042
1332145
754059
1573458
1392231
1137745
251749
251749
2801477
1493508
2801477
756275
242527
2041344
1137745
1527524
756275
2510464
2801477
753084
1332145
251749
251749
2801477
2053653
242527
455364
2740802
2801477
1137745
889951
889951
251749
889953
756275
1137745
889951
2801477
1137745
889953
446529
455364
908819
2801477
455364
889951
756275
1586715
2801477
889951
1586714
754059
1557033
1137745
169683
756275
889951
2801477
889951
889951
889953
889953
756275
1493511
889953
2052742
756275
756275
889951
1335230
1137745
455364
2801477
2686246
753085
1137745
2801477
251749
889951
2740800
1586713
889951
948071
889951
2023996
1880590
455364
889951
1335230
2801477
1880590
2010329
756275
889951
889951
889951
1557033
35241
889951
889953
2801477
756275
169683
1026955
754059
2801477
444860
2801477
1335230
169683
1536592
169683
169683
169683
169683
169683
35241
445692
169683
2740802
948071
455364
880159
169683
1278479
1586715
445684
169683
169683
1586714
1026955
754059
1586715
169683
169683
169683
169683
1026955
169683
169683
169683
169683
948071
2801477
169683
169683
754059
169683
169683
2590946
169683
251749
1026955
169683
455364
1026955
1026955
169683
169683
1026955
455364
279280
908819
322019
169683
169683
169683
169683
948071
455364
756275
169683
169683
2491321
169683
1026955
169683
169683
169683
2801477
169683
169683
169683
169683
2686273
455364
169683
1278479
169683
169683
2099637
756275
2740802
1327971
1026955
260149
590739
169683
169683
169683
1026955
169683
169683
754059
294631
169683
756275
756275
251749
1026955
948071
1392231
169683
169683
889951
169683
1137745
169683
455364
889954
444860
169683
169683
908819
948071
169683
169683
1137745
169683
2590946
2801477
908819
1283076
169683
169683
169683
754042
2099637
2053653
908819
169683
169683
1392231
445688
2801477
948071
2041344
1493511
1586714
756275
756275
1536592
2053653
754041
35241
908819
948870
251749
2801477
1084719
1586713
754041
2510464
756275
1335230
908819
1137745
756275
2801477
948870
445688
696472
455364
756275
2686266
756275
445688
756275
1137745
908819
1493508
2053653
251749
2510464
2053653
908819
251749
754042
948071
1542477
2053653
2801477
455364
948071
244310
889953
2686251
753085
2053653
2041344
2801477
2801477
1586714
251749
1137745
1332145
455364
2053653
1137745
1586713
2053653
455364
753085
756275
35241
2053653
322019
1084719
2053653
35241
1392231
2053653
753085
2053653
756275
2053653
1026955
1283077
1150991
1335230
2053653
455364
909297
2053653
880159
1392231
2801477
1137745
445688
1327971
455364
1137745
753085
2053653
455364
1586715
1536592
889951
948071
1137745
2041344
1197951
455364
2801477
322019
753085
455364
948071
2801477
889951
251749
322019
756275
455364
756275
2801477
889953
889954
2545435
754059
1792274
455364
445688
2740801
756275
455364
2801477
1557035
2801477
455364
2315608
2315608
889951
2801477
2053653
889951
1536592
455364
455364
756275
2545435
455364
948071
2545435
889951
2740801
889951
1332145
948071
1335230
889951
756275
756275
1137745
1586713
251749
2545435
2740801
1335230
2315608
2545435
455364
948071
590739
1127518
1127518
455364
251749
2052742
948071
445688
2024264
2053653
753084
455364
455364
948071
455364
2801477
2041344
1137745
2315608
455364
2801477
455364
756275
753084
756275
1168478
1493511
1493511
438482
251749
1335230
444860
948071
2801477
251749
753084
1917232
756275
322019
455364
2023996
455364
1493511
756275
1084719
455364
756275
1536592
909297
2315608
2801477
2301529
2099637
559189
1026955
756275
754059
1883367
455364
251749
63118
1137745
756275
2590946
1026955
445688
445688
2041344
1026955
948071
754059
1026955
2801477
1026955
754059
1137745
908819
754041
2099637
455364
1586715
455364
455364
1586713
260149
444860
251749
948071
1589733
2099637
2801477
455364
1586713
455364
754059
948071
445688
2484217
2099637
2099637
948071
756275
2010329
753085
756275
1026955
2099637
2099637
2099637
1335230
2510464
756275
908819
445688
2801477
1026955
1542477
2099637
455364
908819
2801477
948071
2099637
2023996
2801477
909297
251749
754067
2686266
445693
251749
889953
455364
756275
455364
169683
205877
590739
169683
880159
2023996
1536592
1026955
2801477
756275
756275
455364
446529
1332145
756275
908819
2801477
948071
754064
10689
754041
1026955
756275
205877
251749
756275
2041206
2053653
1137745
908819
455364
1392231
455364
1137745
2801477
756275
1197951
756275
169683
1283076
2801477
889951
2801477
2801477
756275
1536592
948071
754042
2801477
260149
455364
1278402
948071
756275
948071
948071
948071
948071
948071
948071
2801477
948071
2510464
948071
1536592
948071
251749
948071
444860
455364
1536592
948071
756275
948071
948071
948071
2801477
455364
948071
1335230
1586713
445692
445688
948071
909297
2510464
948071
948071
948071
948071
1586715
756275
2510464
948071
948071
948071
251749
948071
2510464
948071
1137745
948071
455364
948071
2801477
948071
948071
948071
948071
251749
948071
1033977
948071
948071
948071
948071
948071
948071
948071
948071
445688
444860
948071
948071
948071
948071
948071
948071
948071
251749
948071
948071
948071
756275
948071
756275
948071
948071
1283077
948071
948071
1137745
251749
1586715
948071
948071
2686246
2801477
948071
948071
948071
446529
948071
889953
948071
908819
948071
948071
948071
1493511
948071
2740801
908819
1586714
455364
1541819
1116482
2801477
889951
754059
1586713
910474
948071
889951
756277
2419942
2562175
756275
889951
756275
1026955
1586715
889953
2801477
49964
2801477
455364
948071
754059
169683
889951
2041344
455364
2801477
754059
889956
455364
1197951
1495285
1586715
455364
2283015
444862
2740801
889951
1458842
2740801
754059
908819
1137745
753084
1026955
1814284
2740801
2740801
2740801
1084719
2510464
1283076
754059
445688
753085
889951
754059
1332145
279280
756275
1586713
555387
889951
2743801
2740801
948071
2772511
2801477
889951
2419942
445688
455364
880162
2801477
1586715
756275
445688
663241
756276
2419942
445688
2740801
1197951
948071
1883366
455364
251749
280701
1493511
1557033
1542477
455364
889951
2801477
445688
1541819
2027899
2801477
889951
444862
444862
1536592
889951
1327982
2023996
2545435
2053653
294631
445688
2801477
445692
756277
2801477
756275
2419942
294631
455364
251749
754041
2801477
455364
909297
2801477
756275
2801477
251749
1586714
455364
2686246
2801477
1084719
2801477
1391659
2801477
2510464
455364
251749
756275
908819
2801477
455364
2801477
1084719
455364
455364
2740801
756275
2740801
1084719
908819
2740801
754041
2740801
251749
445688
1557033
445688
753085
238854
445688
756275
1137745
455364
2015853
2801477
948071
756275
2053653
2015853
2740801
2015853
1880590
889953
2801477
2740801
444860
455364
2740801
2801477
1969841
455364
2801477
251749
455364
2740801
908819
1137745
455364
754041
1557033
1332145
2510464
1536592
2740801
2041344
2052742
1586713
908819
1332145
455364
2801477
2686251
1586715
948071
2740801
445688
1586713
1880590
2510464
455364
1137745
1917232
1332145
1536592
754059
948071
2510464
754067
753084
1557033
616674
2545435
455364
2740801
880159
2545435
889951
2740801
2740801
753084
2740801
948071
455364
455364
1586713
948071
1392231
1137745
756275
756275
616674
2801477
455364
1586713
2801477
2282904
2053653
169683
169683
1137745
294631
445688
455364
1883366
948071
1137745
2053653
2801477
251749
455364
2801477
445685
1026955
1137745
455364
2801477
2740802
455364
948071
948071
2053653
455364
294631
2801477
2053653
322019
2590946
169683
754042
455364
909297
1586713
1392231
1137745
889951
754067
2053653
1586715
880159
169683
1332145
169683
756275
294631
2268578
2029657
1880590
2801477
756275
1586714
948071
1962671
1026955
2510464
169683
1026955
169683
1392231
754059
948071
1586715
756275
1536592
754059
2801477
251749
2801477
1026955
756275
908819
889956
880161
756275
2510464
908819
1090134
754059
2801477
242527
455364
1493511
754059
2801477
1880590
2053653
756275
251749
948071
1076630
2801477
2801477
1076630
1838061
1493511
2801477
445684
948071
754042
2801477
948071
1327981
2801477
2801477
455364
1572750
948071
2801477
2801477
2545435
880161
2723758
908819
1332145
1436889
1332145
754041
1332145
1436889
1557033
1557033
889951
2801477
1332145
2740802
2686246
1557033
2740802
889951
909297
445688
251749
1332145
1332145
445688
2024264
2801477
1332145
455364
1557033
2740802
880159
909297
1586714
948071
2801477
1137745
251749
889953
753085
2024264
444860
1557033
1332145
2801477
2099637
754059
1332145
1586715
455364
2024264
455364
455364
1557033
754067
1536592
2801477
909297
455364
754041
909297
2740802
2740802
1557033
1493513
2740802
1332145
756275
1536592
880159
1586714
445684
1332145
1051676
1332145
889953
455364
909297
889956
1586713
1332145
909297
445688
1137745
1332145
1332145
2801477
2801477
1332145
2801477
1332145
908819
455364
1536592
1557033
948071
2801477
2801477
908819
2801477
2801477
1557033
455364
948071
756275
1590550
948071
445688
445688
1137745
455364
251749
756275
2027899
948071
948071
1137745
445688
2510464
2510464
948071
2801477
1880590
2801477
754038
2686246
1586715
455364
1335230
756275
455364
756275
754038
445688
754059
1557033
2015853
753085
2801477
948071
455364
2023996
455364
455364
756275
251749
445688
880159
2510464
1586715
455364
294631
294631
455364
455364
948071
455364
1197951
1530085
1557033
1084719
754041
1332145
455364
251749
2801477
2801477
2315608
1536592
756275
1137745
251749
1586714
1026955
445688
1197951
1586714
1883369
880159
455364
2315608
555387
1332145
1392231
948071
2801477
251749
2053653
2801477
1335230
889954
2801477
948071
2801477
2053653
1137745
1150991
2315608
2301529
756275
2484217
2801477
948071
754059
2315608
2023996
1147094
2315608
169683
2740802
948071
2801477
1136535
2801477
2801477
322019
455364
2010329
1392231
616674
1332145
1026955
1536592
1335230
455364
2801477
1557033
889951
2801477
251749
756275
756275
455364
948071
251749
1880590
455364
909297
279280
908819
756275
908819
251749
1137745
756275
2801477
1883365
1084719
2015853
696472
2801477
455364
1536592
1557033
445688
455364
268746
268746
446529
2801477
948071
756275
756275
244310
1137745
455364
2562192
756275
2801477
2801477
1586715
1392231
194699
1586715
909297
1392231
756275
908819
446529
251749
1542477
948071
756275
1586714
455364
322019
756275
2053653
756275
756275
455364
948071
445688
2801477
909297
242527
251749
2801477
455364
169683
909297
889953
2024264
2801477
2315608
1557033
754059
169683
1815957
136084
2801477
2024264
2593333
455364
1586715
251749
455364
455364
889953
948071
1586715
889953
1880590
445688
2740802
1335230
446529
2686245
2023996
756275
2510464
756275
754067
136084
756275
2801477
455364
2099637
455364
169683
756275
1838061
869724
753085
2053653
2053653
1838061
1880590
754059
909297
2041344
1557033
455364
889953
1913038
880159
1335230
2686246
1335230
1557033
251749
756275
948071
279383
1026955
1586715
2801477
754059
2053653
546805
136084
251749
756275
756275
2767576
948071
455364
756275
1880590
35241
880159
251749
2743801
1917232
2801477
756275
1084719
1880590
251749
1335230
2801477
2053653
756275
948071
455364
756275
756275
1586714
455364
1586715
455364
1137745
2283025
2743801
1557033
948870
446529
756275
1586713
2801477
2491321
1536592
948071
35241
2743801
754042
2015853
2743801
455364
2686279
753084
205869
1557033
2099637
251749
754042
2024264
1536592
445688
251749
169683
169683
169683
169683
2510464
2801477
169683
908819
1137745
756275
169683
169683
754059
169683
169683
169683
169683
1168478
169683
169683
2801477
169683
169683
455364
169683
169683
169683
2740801
455364
455364
169683
169683
169683
2099637
2801477
1392231
169683
169683
169683
2053653
169683
169683
169683
169683
354260
1357715
2801477
169683
169683
455364
756275
2740801
754059
1586715
948071
169683
2510464
169683
169683
908819
169683
169683
169683
590739
169683
280701
169683
455364
169683
169683
169683
169683
2801477
948071
169683
169683
169683
169683
889953
756275
169683
2801477
616674
1392231
169683
2743801
2801477
2801477
169683
169683
169683
251749
169683
169683
169683
169683
169683
1109710
251749
754059
2723758
169683
169683
169683
1392231
1880590
2053653
2740801
169683
169683
169683
2801477
2053653
756275
1392231
169683
169683
169683
1026955
2053653
1474867
948071
2740801
169683
169683
2801477
1586715
2801477
1357715
1392231
889953
1392231
455364
169683
169683
251749
169683
169683
1536592
169683
1392231
169683
169683
445688
948071
2041344
1137745
169683
445688
169683
169683
455364
2740801
2801477
2801477
1391659
756275
169683
169683
169683
1586714
169683
1357715
948071
169683
169683
2801477
169683
756275
169683
169683
756275
754059
2301529
2024264
169683
169683
251749
169683
2268578
169683
2053653
948071
948071
889951
455364
948071
948071
948071
948071
948071
1586715
889951
948071
889951
1572745
753084
948071
2801477
756275
948071
948071
948071
909297
948071
948071
948071
948071
948071
1586715
756276
948071
889951
889951
948071
948071
2301529
948071
2053653
948071
889951
1586714
2801477
445700
948071
2743801
948071
294631
754067
948071
889951
948071
756275
1392231
889951
948071
445688
194699
1137745
2053653
948071
2801477
1880590
2801477
251749
948071
948071
756275
948071
2283261
948071
948071
238854
2801477
948071
889951
948071
756275
948071
948071
2801477
1137745
1880590
889951
948071
889951
948071
948071
2041344
2510464
948071
948071
889951
455364
889951
455364
889951
948071
455364
1150991
948071
444860
1392231
948071
948071
948071
948071
948071
455364
889951
455364
948071
455364
948071
889951
889951
948071
889951
948071
455364
948071
948071
251749
948071
948071
1880590
2686251
948071
948071
756275
948071
889951
2510464
1084719
1168478
2801477
2801477
948071
948071
2053653
889951
948071
2024264
268746
948071
948071
2653651
948071
948071
1557033
948071
948071
948071
948071
889951
382359
948071
948071
2801477
948071
2052742
756275
948071
948071
244310
889951
948071
455364
2801477
948071
1586715
2801477
756276
948071
1572745
948071
889951
948071
889951
948071
889951
889951
948071
948071
455364
948071
2510464
948071
754041
948071
445688
948071
948071
1557033
2801477
2053653
2053653
889951
948071
948071
948071
1493514
889951
756275
2041344
948071
948071
2801477
754059
2801477
2053653
2801477
1026955
251749
756275
693272
169683
756275
693272
2099637
754059
756275
251749
2801477
756275
455364
1026955
445688
1880590
2041344
2686246
756275
2686245
693272
2053653
1880590
2053653
2723758
455364
2491321
251749
2801477
909297
2053653
2801477
2023996
238854
1026955
2024264
2801477
2053653
948071
754067
445688
2053653
2301529
2282909
908819
251749
244310
455364
2041344
693272
693272
616674
753084
2041344
1883365
1133293
2686246
1536592
693272
2036055
693272
754059
693272
948071
754067
2015853
1586715
2772074
2053653
948071
1493511
2740801
205879
2041344
238854
948071
2801477
948071
1883365
948071
455364
756275
948071
49964
1586713
1392231
1536592
948071
455364
908819
2759393
461711
2801477
2801477
2801477
1084719
1084719
1557033
754067
455364
1137745
948870
2801477
380598
1586715
455364
1084719
2801477
2686246
948071
948071
698489
445700
455364
10678
880159
444860
1392231
446529
756275
2801477
268746
948071
268746
1084719
1586713
2510464
2686250
251749
49964
2268578
455364
1557033
2041344
908819
756275
1883366
948071
1137745
2801477
2743801
756275
1557033
2053653
756275
2801477
2772511
2801477
445688
880159
1536592
2053653
2041344
1557033
1557033
169683
251749
908819
756275
1536592
1557033
2041344
753085
1586715
2723758
1536592
1557033
1283077
1536592
908819
251749
1283077
1589733
2023996
445686
2801477
1586714
244310
2053653
1586713
2301529
2686251
445688
455364
2801477
2041344
1557033
1486472
2801477
2801477
1557033
1557033
2099637
455364
1557033
948071
948071
2315608
2053653
908819
455364
908819
244310
1557033
2024264
455364
756275
455364
294631
948071
1557033
948071
2801477
1586713
756275
2301529
2301529
244310
63118
1283077
35241
455364
1084719
2315608
756275
455364
1573458
909297
1883366
455364
2801477
455364
1883366
1204524
1557033
1814284
1557033
2023996
169683
169683
169683
1026955
169683
169683
455364
169683
754042
445688
169683
1026955
169683
445688
445688
1541819
1026955
2801477
169683
169683
169683
2686245
1536592
169683
169683
756275
2491321
169683
169683
169683
169683
455364
753085
169683
169683
169683
169683
169683
169683
169683
455364
169683
1557033
2686245
169683
169683
1026955
169683
169683
754042
169683
1026955
169683
169683
1392231
251749
2053653
756275
169683
169683
169683
2801477
169683
1392231
1026955
169683
169683
2026080
169683
169683
1586715
169683
251749
169683
169683
169683
1026955
2801477
169683
1880590
169683
455364
2801477
756275
169683
169683
1026955
169683
169683
948071
169683
169683
169683
169683
169683
169683
169683
169683
1026955
754059
169683
169683
169683
169683
2053653
169683
753084
2024264
169683
169683
169683
169683
1283077
2053653
169683
169683
169683
2801477
169683
169683
169683
169683
445688
169683
169683
169683
2801477
2801477
2053653
169683
169683
169683
169683
169683
455364
2801477
169683
169683
169683
2801477
2023996
169683
1493511
169683
169683
2053653
754059
1026955
754059
1586714
169683
169683
2510464
446529
169683
169683
880159
536453
948071
908819
2601643
1883366
2801477
2510464
2100130
2801477
1542477
2053653
2686246
2686246
455364
948071
445688
2502425
948071
2801477
1137745
455364
446529
889951
2053653
2801477
753085
445688
1084719
2801477
2053653
2740802
268746
455364
753084
2510464
455364
756275
238854
445688
251749
753084
1445858
756275
2053653
455364
948071
2545435
455364
2801477
756275
251749
1880590
2052742
1586715
2740801
205869
1586715
696472
2052742
2053653
908819
445688
455364
2772511
2053653
948071
756275
2545435
909297
1969841
869724
1880590
756275
756275
2686251
908819
2801477
455364
880159
1332145
2801477
2041344
445688
2686251
1168281
2052742
2686246
2801477
2801477
756275
2041344
1586713
1392231
754042
445692
455364
455364
2686247
2052742
455364
2510464
294631
2015851
753085
2801477
754064
756275
908819
455364
869724
2801477
251749
2510464
756275
2686246
1335230
1391659
2801477
756275
948071
251749
1586713
2801477
445688
1883366
2015853
1168478
753085
889953
445688
445688
2053653
889953
455364
2053653
455364
754042
1536592
1493511
2024264
445688
455364
2740802
445688
455364
445688
2510464
754064
1567005
756275
445688
948071
445688
2053653
445688
445688
948071
948071
251749
445688
2053653
756275
445688
2759393
445688
251749
2801477
2053653
2053653
445688
753084
1586715
1536592
445688
445688
2801477
2591403
2801477
948071
455364
455364
445688
756275
1536592
445688
445688
1084719
445688
1084719
455364
445688
2801477
948071
455364
445688
445688
445688
445688
445688
445688
445688
445688
445688
445688
1883365
445688
756275
909297
445692
1573458
948071
909297
2686246
948071
2723758
754042
445688
948071
1051675
2053653
445688
455364
1880590
753085
753084
445688
445688
10689
2053702
455364
2053653
2053653
1273711
2053653
754042
1168478
756275
754041
1586714
2053653
756275
869662
2801477
445688
908819
445688
2801477
1536592
279280
10678
754041
1327971
1586713
446529
754041
2740802
2053653
1273711
251749
756275
1084719
754041
2510464
2801477
1883375
754041
1586715
2740802
455364
169683
455364
754041
2053653
455364
251749
2740802
1536592
445688
2053653
754041
2053653
756275
215158
455364
756276
754041
754041
2801477
948071
756275
2740802
2740802
2740802
753085
2740802
2593333
2491321
2024264
2740802
2053653
754041
2801477
446529
1586714
1141136
2801477
880159
2740801
754041
754041
2801477
455364
2053653
754041
908819
455364
322019
1586714
1573458
2024264
10689
2801477
1792032
2801477
2053653
754041
756275
1536592
251749
754041
1880590
908819
455364
754039
2740802
1933063
756275
251749
2801477
2023996
1815521
754041
169683
2801477
1586715
2491321
2053653
294631
1137745
2740802
1168478
260149
2041344
889953
754041
2053653
2053653
455364
2801477
2686251
948071
754042
194699
446529
251749
1852629
2053653
2801477
251749
238854
2801477
756275
2041344
1557033
948071
756275
2053653
2053653
754042
756275
251749
756276
754067
2053653
2053653
445688
2053653
1573458
2041344
2801477
756275
268746
2053653
194699
948071
754041
1392231
2053653
169683
2743781
754041
251749
2053653
1026955
455364
1586713
251749
948071
2053653
2053653
2053653
2801477
1557033
2053653
754042
2053653
2053653
756275
1880590
251749
2053653
268748
1137745
455364
2801477
1147094
908819
294631
948071
251749
1586714
2053653
880161
948071
908819
2053653
455364
948071
948870
2053653
1883368
2740801
169683
455364
753085
756275
754059
1168478
1137745
2041344
2053653
455364
2315608
889951
948870
1536592
2801477
446529
754059
1883365
756275
2759393
908819
2801477
294631
1327983
889951
2686251
2801477
251749
753084
1573458
2053653
2743781
455364
455364
948071
2053653
753085
455364
908819
2053653
1033977
2041344
35241
1168478
455364
35241
2801477
889951
2801477
2801477
756275
754042
1586713
2053653
1536592
1325731
251749
889951
169683
1026955
2801477
1052673
590739
455364
2801477
1493511
169683
169683
909297
1883366
2053653
2053653
1332145
2053653
1474867
455364
455364
244310
2053653
1168478
1084719
909297
1137745
1586715
194699
1883368
1493511
1586714
2545435
455364
455364
2590946
756275
908819
169683
2053653
2740801
889953
2801477
1137745
455364
1283077
754067
909297
455364
1332145
242527
756275
948071
2801477
1332145
754041
2053653
1335230
2301529
2801477
696472
2023996
948071
446529
2759393
2053653
1586714
2053653
2562192
756275
948071
2491321
2053653
754042
756276
1557033
1084719
455364
2801477
1536592
2801477
1557033
455364
753085
948071
1536592
2801477
1557033
1883370
2801477
756275
455364
1586714
948071
455364
1557033
1536592
1084719
642926
2053653
446529
2801477
242527
1168478
948071
756275
948071
455364
1542477
251749
2053653
2053653
455364
948071
889951
909297
455364
2801477
445688
445688
2053653
1109714
455364
1586715
756275
948071
1335230
2053653
754067
909297
1880590
2801477
948071
1486472
2801477
948071
948071
948071
2053653
889953
1586715
756275
948071
2053653
445688
2801477
948071
445688
2801477
948071
948071
756275
2053653
455364
2801477
2686273
948071
455364
2053653
948071
445688
2283025
455364
445688
445688
948071
2593333
2099637
948071
1586715
1137745
2491321
948071
948071
2801477
2801477
1335230
756275
2686246
1586714
756275
754041
2686246
2686273
948071
1486472
2099637
948071
2099637
908819
948071
948071
756275
756275
455364
754041
756275
948870
948870
756276
251749
1327983
2801477
948071
2601643
948071
455364
756275
455364
1958956
1137745
2686273
948071
2029657
756275
1391659
948071
49964
2052742
948071
948071
2801477
2686251
455364
756275
455364
205879
948071
2024264
948071
948071
756275
948071
948071
445688
1536592
756275
1880590
322019
294631
948071
948071
455364
948071
455364
880162
2686251
2053653
948071
2801477
444860
948071
948071
948071
2510464
948071
948071
948071
251749
948071
756275
948071
455364
948071
948071
2801477
948071
1969841
948071
948071
2053653
948071
948071
2723758
948071
455364
455364
948071
889956
948071
251749
251749
455364
455364
2041344
948071
455364
948071
2801477
1137745
455364
1084719
756275
2053653
251749
754042
2070181
948071
948071
753085
322019
948071
2053653
948071
948071
948071
244310
2801477
1137745
948071
2510464
948071
948071
756275
2801477
948071
2801477
948071
756275
756275
948071
756275
948071
2686245
948071
455364
948071
948071
251749
948071
2041344
2024264
1814282
251749
2801477
1557033
1392231
1536592
1883371
756275
455364
1586715
2491321
2041344
455364
756275
455364
2510464
1557033
2052742
2801477
756275
1335230
251749
756275
455364
2801477
2801477
756275
1586713
2801477
2510464
455364
1586714
1392231
455364
2510464
1880590
251749
2801477
2023996
455364
756275
1536592
756275
756277
1536592
322019
455364
455364
756275
2801477
1880590
2510464
756275
1586713
455364
1392231
2801477
455364
756275
2510464
756275
1536592
2053653
455364
2510464
2053653
1536592
756275
1141136
756275
756275
2801477
756275
756275
2801477
2801477
1536592
2026080
230158
2023996
483266
455364
2740801
445692
2740801
251749
169683
1557033
889951
251749
169683
455364
2801477
230158
754042
908819
756275
948071
2547425
294631
2099637
483266
756275
2053653
2491321
10678
251749
756275
2686266
2023996
1283076
756275
2023996
322019
2801477
2283261
2801477
1357715
169683
444860
1273711
540066
1283076
754042
1392231
2099637
169683
756275
2801477
2053653
251749
756275
205869
948071
1542477
1161935
1883369
1493511
948071
2723758
169683
2099637
948071
483266
948071
756275
445692
251749
753084
948071
2053653
889954
445688
2801477
754042
756275
2053653
2801477
948071
756275
169683
754042
756275
2053653
754042
2801477
2053653
2686247
1883366
2801477
753085
455364
455364
908819
2301529
1838061
446529
1536592
2801477
2801477
169683
230158
251749
929832
483266
431892
889953
2053653
1883369
446529
279383
948071
2801477
754042
1327982
251749
2801477
251749
2053653
194699
1542477
483266
2070181
2010329
756275
2053653
1327982
756275
1880590
455364
2686251
445688
756275
230158
756275
2562192
2801477
1557033
1586714
230158
2801477
2491321
948071
555387
483266
756275
2053653
2079289
445688
948071
2801477
230158
2801477
756275
1838078
756275
754042
2723758
754042
483266
754042
948071
251749
948071
908819
1109714
1283076
2023996
1917232
294631
169683
2491321
880161
238854
455364
431892
2099637
1147094
2801477
1555202
754042
169683
2562175
2301561
1557033
251749
431892
756275
1493511
948071
2491321
445688
889951
1557033
754042
445688
756275
483266
1283076
2510464
1084719
1327935
889953
756275
2759732
2023996
909297
2562192
2723758
1084719
455364
1283076
2053653
2801477
1493511
754041
2801477
756275
2565501
696472
948071
756275
445688
754041
756275
756275
2801477
1283076
2053653
756275
889951
756275
2315608
2801477
483266
1414737
455364
948071
2741077
455364
1557033
753085
483266
2562192
2024264
2053653
756275
2053653
753085
1332145
455364
2801477
1327935
1283076
948071
1536592
230158
1586714
2801477
2801477
948870
948071
1026955
2801477
2053653
754042
483266
445688
754042
754042
2749430
2023996
2740801
230158
1283076
2053653
2053653
756275
2053653
1897769
1335230
756275
215158
948071
2801477
880159
169683
2053653
169683
2801477
2510464
230158
2053653
2591403
753085
483266
169683
1283076
754067
889951
754042
483266
2759393
948071
230158
756275
754042
756276
340435
753085
2023996
754042
909297
1493511
445688
754042
1493511
2010329
2053653
889951
2053653
756275
446529
756275
1557033
948071
756275
756275
908819
455364
169683
2484217
2510464
536466
754042
2801477
455364
756275
754042
2801477
2686246
754042
756275
909297
230158
1586714
1026955
2053653
754041
756275
756275
756275
169683
1573458
1880590
438482
754042
1536592
909297
455364
455364
2801477
756275
756275
1332145
2801477
2801477
2510464
2759393
2041344
756275
444860
455364
2801477
2268578
1536592
2759393
2024264
756275
455364
756275
2268578
756275
2041344
455364
1586713
756275
194699
251749
756275
2759393
205879
2743781
251749
2759393
1536592
455364
1883365
2053653
455364
2759393
908819
251749
455364
753085
1557033
251749
251749
2801477
756275
251749
2041344
2801477
2801477
1880590
1536592
2010329
1586713
756275
1536592
2015853
753084
756275
445688
889953
1150991
889953
2010329
753084
889953
909297
2053653
445688
445688
251749
455364
948071
455364
1273711
2041344
2053653
445688
2801477
445688
279280
909297
445688
2801477
756275
753084
455364
251749
756275
756275
1586715
445688
2070181
756275
455364
1137745
445688
1586714
2053653
445688
445688
445688
455364
445688
753084
753084
294631
2510464
756275
2801477
445688
754067
753084
251749
1590550
2801477
455364
2801477
1536592
445688
1586715
294631
445688
1586715
445688
2801477
753084
251749
445688
2545435
2801477
455364
948071
948071
1542477
1880590
455364
1137745
756275
2801477
1586715
1536592
909297
756275
2024264
455364
756275
2053653
2801477
455364
2686273
948870
754042
445688
756275
908819
445688
909297
756275
2801477
756275
2801477
948071
909297
444860
2053653
445688
2801477
2772511
756275
756275
1586714
194699
1557033
1557035
756275
756275
2053653
251749
2801477
2801477
1880590
445688
455364
909297
2801477
2801477
2801477
446529
445688
1586714
948071
756275
1486472
756275
909297
455364
2053653
754067
455364
889953
2686246
948071
455364
1557035
948071
2801477
1327982
1127518
2759393
2023996
2545435
1168478
948071
1308863
1137745
455364
1586714
242527
445692
889951
2686266
2801477
2801477
948071
455364
2801477
455364
948071
889951
756275
756275
251749
948071
889951
756275
756275
889951
455364
889951
455364
753084
2545435
889951
889953
1880590
2053653
2545435
2041344
455364
889951
1127518
754059
889951
889951
2053653
461711
2686246
1327982
2053653
1586713
909297
2686251
889951
889951
754059
756275
754059
2041344
753085
754059
2041344
2656556
756275
756275
1327982
1127518
754059
2545435
194699
455364
2801477
948071
2801477
756276
2545435
889951
1536592
1278479
2801477
1335230
2801477
1327982
756275
1283076
1278479
908819
1586715
2053653
2107709
444860
1168479
2545435
754059
2801477
1536592
889951
754059
2545435
2545435
455364
2053653
948071
1127518
889951
948071
251749
1084719
1127518
948071
2510464
1127518
2801477
169683
2767576
1536592
2801477
251749
1880590
2010329
1493511
754042
756275
2510464
2686246
2491321
455364
1821558
455364
948071
2801477
446529
169683
1335230
756275
1472912
1278402
2053653
756275
2053653
2500166
251749
889953
756275
268746
1586715
889953
455364
1586715
1557033
1883368
2201420
169683
2801477
251749
1283076
251749
2801477
169683
889951
169683
2801477
1536592
2801477
2491321
169683
169683
756275
294631
169683
756275
455364
889953
2500166
2053653
2801477
1137745
2053653
1283077
1586713
1536592
2024264
169683
2801477
1332145
2510464
889953
756275
2656526
1283077
1147094
2743801
1079998
948071
1332145
169683
251749
756275
2053653
169683
169683
260149
2510464
909297
455364
446529
238854
2053653
1590550
756275
889953
2740801
445688
1493511
455364
696472
693272
2801477
455364
880159
756275
251749
756275
756275
948071
1814282
251749
251749
455364
693272
693272
948071
169683
2041344
1536592
1335230
455364
169683
909297
2053653
1079998
1880590
909297
2053653
909297
1586713
455364
693272
169683
169683
756275
756275
756275
46021
455364
1283076
46021
455364
2801477
455364
693272
1586714
1586715
756275
455364
169683
693272
2053653
455364
1283077
2686251
251749
693272
693272
445688
438482
880162
46021
2801477
693272
455364
2562192
455364
880159
2801477
2023996
455364
2041344
212035
908819
753085
889953
2053653
1168478
1168478
455364
1084719
693272
2801477
455364
169683
455364
1493511
2053653
455364
2053653
2053653
2801477
756275
2053653
2801477
756275
455364
948071
242527
2053653
2053653
1168478
2053653
754041
2801477
756275
2491321
2740802
754041
251749
445688
455364
754041
2686266
2740802
889953
756275
294631
455364
756275
331627
861045
1137745
2740802
2053653
2053653
861045
268746
2740802
1883369
2801477
1536592
2740802
1557033
756275
1917232
445688
2053653
455364
948071
2740802
948071
2801477
2686245
2053653
2686251
2053653
2801477
889953
889953
2686250
1493514
948071
455364
2801477
2740802
2801477
2740802
1168478
455364
455364
889953
268746
2686251
268746
2268578
2024264
2053653
2740802
455364
756275
445686
2010329
251749
2268578
1084719
1493511
230158
1536592
2070181
2053653
861045
455364
756275
251749
2686251
251749
2759393
1536592
1168478
2801477
2801477
754042
756275
455364
2010329
573174
880159
1557033
2743781
455364
1586715
455364
1392231
455364
756275
2053653
909297
50948
2759393
1586715
251749
1567472
1880590
455364
1920311
2283025
444860
2801477
2801477
756275
1586714
444862
2053653
455364
2772511
455364
753085
455364
756275
455364
2801477
2801477
948071
1586715
756275
909297
908819
1141136
2801477
1536592
2053653
756275
756275
455364
1392231
2023996
2686246
2801477
444862
444862
399781
444862
1586715
756275
455364
2053653
205879
889953
455364
756275
2053653
1536592
1137745
2801477
756275
2801477
455364
756275
889951
2491321
754042
889953
756275
1137745
1137745
2053653
1168478
2686246
909297
1536592
2023996
1137745
2283025
444862
444862
2801477
279383
2801477
756275
1920311
756275
205869
948071
948071
2801477
2484217
948071
948071
948071
948071
948071
948071
1332145
948071
948071
756275
948071
2053653
455364
2053653
948071
948071
948071
948071
948071
753084
1168478
445688
948071
2053653
948071
1141136
2759393
2041344
948071
948071
948071
948071
2592212
1033977
948071
948071
445688
756275
948071
2053653
880162
696472
948071
948071
194699
948071
948071
948071
948071
948071
445688
948071
948071
948071
205879
948071
2053653
2053653
948071
948071
948071
948071
948071
756275
948071
948071
948071
756275
948071
948071
455364
948071
2723758
948071
2801477
948071
948071
455364
446529
1536592
1474867
948071
948071
948071
948071
455364
909297
948071
446529
2740801
455364
948071
948071
948071
756275
1137745
2053653
756275
948071
948071
948071
756275
754059
948071
461711
445688
948071
948071
756275
948071
455364
948071
244310
244310
756275
948071
948071
948071
948071
948071
2041344
1269028
1815522
948071
948071
756275
756275
1141136
455364
2740802
756275
455364
948071
455364
1586713
2053653
948071
948071
2723758
2801477
948071
948071
948071
2053653
445688
948071
2801477
455364
948071
948071
753085
754064
445688
948071
948071
948071
948071
445688
756275
948071
948071
948071
2510464
948071
756275
2053653
948071
455364
455364
948071
251749
2510464
908819
1536592
446529
2686251
2491321
1586715
756275
1084719
754059
251749
1586714
756275
948071
1332145
2545435
2801477
2053653
1586714
754059
1557033
754042
2801477
756275
455364
756275
2801477
455364
2053653
238854
75320
455364
2053653
889951
455364
756275
756275
754059
2801477
756275
948071
2686251
1586714
455364
1880590
1141136
948071
756275
2801477
2801477
251749
2510464
889953
1586715
2023996
212035
212035
756275
756275
455364
754059
756275
1557033
2801477
754059
268746
754059
251749
455364
2801477
756275
2510464
2024264
2301529
2023996
1557033
1557033
1141136
2053653
455364
2053653
756275
2053653
251749
754059
2510464
169683
169683
251749
754059
169683
2053653
1883379
756275
948071
169683
169683
169683
2801477
889953
754042
169683
169683
753085
1197951
169683
169683
2686245
2801477
169683
251749
754042
169683
1474867
169683
2801477
169683
756275
169683
2053653
169683
2801477
1033977
139871
169683
909297
455364
2510464
754059
2801477
2510464
169683
754042
455364
169683
169683
455364
1586715
753084
2041344
213775
169683
169683
1084719
756275
2053653
889953
1278402
169683
251749
2023996
169683
169683
169683
169683
169683
169683
169683
169683
2023996
455364
2545435
169683
169683
455364
169683
2801477
169683
169683
754059
169683
169683
1392231
169683
455364
1168478
2024264
169683
169683
948071
169683
2053653
169683
169683
169683
169683
169683
169683
2723758
2053653
754059
169683
169683
2801477
455364
2801477
169683
169683
754059
455364
756275
169683
169683
169683
169683
2801477
169683
169683
169683
756275
169683
455364
1883379
1536592
169683
1883372
169683
909297
169683
2740802
251749
169683
169683
169683
2053653
169683
444860
169683
169683
268746
1586715
2801477
169683
756275
756275
2740802
2740802
1969841
169683
1392231
1084719
169683
169683
169683
756275
169683
2053653
169683
169683
1883366
169683
1536592
754042
1150991
169683
169683
169683
169683
455364
445688
238854
948071
169683
2053653
169683
169683
455364
169683
445688
169683
1493511
756275
169683
909297
169683
169683
2053653
1197951
169683
1536592
1332145
1129145
756275
169683
169683
169683
2801477
169683
756275
169683
446529
169683
169683
756275
169683
169683
1137745
909297
948071
948870
2801477
1917232
251749
753084
2053653
948071
2053653
1557033
194699
1519788
1557033
2053653
948071
2801477
455364
948071
455364
2801477
948870
2491321
455364
2801477
948071
948071
948071
2801477
2053653
455364
2801477
948071
455364
2053653
2801477
2053653
756275
754042
756275
1586715
948071
2024264
1557033
998086
2010329
1283076
139871
948071
194699
264729
2053653
1542477
642926
1493511
754042
1557033
2801477
2024264
2053653
322019
698487
889953
455364
455364
1542477
590739
1917232
1327037
1883366
1536592
754041
948071
455364
455364
1542477
455364
2801477
948071
445688
264729
1542477
909297
446529
1137745
2686246
1557033
889953
238854
948071
1079998
2053653
909297
251749
948071
2801477
948071
756275
2041344
455364
264729
1079998
1586714
1391659
2801477
2053653
1079998
242527
2053653
2053653
880161
2023996
948071
2801477
1079998
1573458
948071
2023996
2053653
455364
438482
444875
880162
753085
909297
756275
2686266
909297
455364
251749
1391659
1332145
455364
242527
889951
251749
1084719
242527
756275
251749
1536592
889953
909297
880161
1586715
2801477
455364
2024264
455364
1548912
909297
1084719
2010329
2024264
1536592
756275
2491321
1536592
445688
756275
948071
2510464
2510464
756275
753084
1391659
1586715
1084719
755272
909297
251749
1880590
2801477
455364
753084
455364
948071
1557033
455364
756275
445688
2650877
889953
2010329
1883365
908819
455364
908819
1586715
948071
2053653
2801477
2024264
2491321
753084
948071
908819
1137745
251749
2053653
1141136
1536592
753085
2010329
756275
445688
2024264
2491321
455364
444860
251749
1168478
455364
753085
889951
455364
2801477
756275
1335230
445688
948071
756275
2510464
756275
2510464
2772511
2510464
2053653
756275
756275
1536592
1883371
2801477
2801477
753084
2801477
1962671
1557033
251749
889953
251749
2801477
2491321
2053653
889951
2801477
2510464
756275
2740801
2686273
753084
194699
2686245
753084
909297
1283076
1557035
889951
755272
2053653
251749
2099637
251749
2052742
658401
2686251
1586713
2041344
2686245
756275
948071
151539
2023996
1195085
455364
754042
2801477
2740801
244310
2686246
1527771
1113547
756275
455364
756275
755272
2053653
2053653
753084
455364
948071
908819
2801477
1883371
2053653
446529
2041344
2801477
2053653
1269028
2053653
1141136
1137745
2510464
2053653
2656556
753084
1880590
1137745
2041344
2801477
2024264
880159
693272
756275
169683
753084
251749
754042
455364
753085
2053653
2024264
909297
446529
658401
1137745
1557033
238854
2723758
322019
756275
756275
756275
1498228
455364
1084719
2801477
756275
2053653
1445858
2053653
2772511
1586715
908819
1168478
943335
169683
908819
2023996
2053653
754042
244310
1883366
268746
754042
2801477
455364
2801477
2801477
756275
445688
2510464
294631
2759393
2510464
2801477
445688
1391659
754041
754042
1883371
2053653
294631
1815968
1283077
251749
445688
2053653
445692
2053653
251749
2053653
322019
445688
754042
2024264
1392231
445688
2801477
756275
2053653
1586715
455364
444878
1474867
756275
1283077
455364
445688
754041
2053653
455364
756275
1391659
455364
2053653
1536592
445688
1883366
1557033
909297
445688
251749
2053653
251749
2510464
445688
756275
1137745
445688
1557033
445688
754042
445688
754041
2053653
2010329
2053653
445688
1536592
1168478
2801477
445688
948071
2801477
754042
756275
2510464
2053653
455364
754041
455364
1536592
445688
2053653
251749
455364
445688
2053653
948071
754042
2053653
445688
1335230
445688
1493508
948071
2723758
2801477
2510464
455364
756275
2053653
2026080
2023996
2023996
756275
756275
1332145
2053653
1557033
2723758
755272
756275
1557033
908819
2801477
2023996
2023996
2053653
1493511
455364
889951
889951
754042
455364
2801477
1127518
2740801
1332145
1557033
889951
756275
754041
1880590
445686
756275
555387
756275
2801477
1493511
2053653
889951
756275
2801477
2801477
909297
49964
756275
169683
1327983
1141136
1586715
948071
1332145
2801477
869724
2801477
2801477
1168281
455364
1137745
756275
455364
889951
756275
756275
2740802
2801477
1168281
756275
2010329
756275
753084
754067
2053653
559189
455364
1141136
1887641
1269028
754041
1880590
994601
2079134
2801477
455364
251749
756276
889951
2545435
1084719
251749
2024264
251749
2023996
1586715
2801477
2801477
909297
756275
251749
2801477
1137745
1493511
1033977
908819
1542477
2801477
1536592
753085
1493511
948071
948071
754042
756275
1137745
756275
2801477
2053653
909297
2545435
754067
2024264
2545435
754042
2801477
756275
889953
445688
2801477
756275
861045
754042
1883369
2801477
2801477
2801477
251749
444875
1838074
1557034
455364
756275
1880590
2686251
1586714
756275
889951
2801477
2801477
2023996
889951
1084719
2801477
889951
909297
2053653
2510464
2070181
455364
446529
756275
169683
445688
756275
1283077
1962671
2801477
2079288
251749
2801477
2510464
2801477
1586713
909297
389214
696472
756276
1283077
455364
251749
756275
2053653
446529
1586715
1327971
2053653
756275
136084
756275
948071
2010329
389214
238854
1283076
251749
756275
754064
756275
445686
1536592
2024264
455364
2801477
251749
2041344
455364
756275
1392231
2801477
2801477
948071
2053653
754059
909297
2053653
2545435
1493508
1536592
455364
1586714
756275
2686245
2801477
756275
455364
2510464
1493508
753084
1557033
948071
238854
445684
136084
1493508
948071
1327971
753085
1283076
2010329
455364
251749
756275
238854
756275
909297
753085
2759732
756275
880159
2024264
1555202
2484217
2053653
2801477
2053653
1557033
169683
756275
2301561
2053653
1283076
756275
756275
1137745
1493511
445688
948071
756275
445688
948071
445688
889953
948071
756275
455364
238854
2510464
446529
929832
251749
2801477
909297
2107709
756275
445688
948071
242527
455364
445688
756275
2053653
251749
445688
1278402
445688
756275
909297
1283076
444878
1332145
756275
1052673
756275
455364
445688
2053653
753085
455364
948071
756275
693272
251749
1150991
1052673
1586713
2686266
455364
455364
889951
445688
1969841
445688
1137745
756275
536466
756275
445688
948071
2041344
889953
909297
1536592
251749
2801477
1880590
948071
2740802
756275
445688
1586713
1917232
445688
909297
753085
948071
445688
2053653
445688
445688
251749
438482
445688
445688
1137745
2053653
2053653
1084719
455364
455364
2801477
2801477
445688
1536592
445688
2023996
2024264
2801477
756275
1357423
756276
1536592
756275
1527771
2052742
756275
948071
2686246
1278479
238854
1493508
2801477
756275
2053653
2053653
455364
909297
2070181
445684
268748
1391659
2510464
754059
1357714
2650877
749413
169683
2510464
1335230
2053653
2053653
2686080
756275
1536592
2053653
1965368
2812854
1327983
2053653
1557033
2053653
2041344
2510464
889953
909297
938131
2024264
756275
2801477
1084719
1536592
2801477
2053653
1586715
880162
948071
1536592
756275
2053653
251749
268748
2591403
238854
268748
2510464
2801477
2801477
2053653
889953
756275
2740801
2740801
455364
948071
756275
169683
2315766
889953
2801477
2029657
2041344
756275
194699
948071
2510464
948071
754042
1542477
2801477
444860
2801477
251749
2024264
445688
948071
2801477
2801477
948071
756275
2801477
754067
756275
169683
1536592
1880590
2024264
756275
2510464
455364
455364
2099637
1536592
1557033
1493508
455364
2557582
1536592
2801477
455364
1472912
2740802
1536592
2010329
2801477
446529
2801477
2801477
756275
1278402
754042
455364
2053653
1586715
1329402
445686
1586715
455364
756275
2053653
2801477
2801477
455364
756275
2801477
2801477
756275
455364
2801477
2041344
455364
2801477
455364
754041
1283076
2801477
756275
753084
2545435
1557034
754041
444860
251749
754042
322019
880162
909297
2686273
2545435
948071
251749
445688
2545435
2027899
948071
445686
2801477
2053653
2562175
2053653
2053653
909297
2801477
2052742
909297
753085
2686266
251749
2801477
2562175
2801477
747763
1965482
1917232
948071
445688
251749
445688
869724
753085
2053653
322019
2053653
2686273
756275
455364
1278402
445688
1273711
2686246
1137745
2686266
455364
455364
1493511
1557033
2027899
948870
889953
2010329
2053653
2801477
1536592
1586715
756275
756275
756275
1084719
2759393
455364
909297
455364
455364
2010329
756275
756275
756275
455364
880161
756275
455364
455364
1586715
1084719
2053653
2010329
2801477
909297
2041344
455364
693272
2801477
2053653
2801477
2723758
889953
455364
696472
756275
251749
2052742
294631
251749
2801477
279303
889953
1536592
756275
2686251
908819
455364
251749
1137745
756276
756275
2024264
455364
2491321
908819
2801477
455364
251749
251749
1332145
756275
880161
1536592
2801477
446529
2053653
1573458
948071
948071
754042
2801477
2026102
2801477
1536592
948071
455364
1536592
2801477
2801477
948071
753084
754067
909297
1392231
753084
1026955
2801477
2801477
455364
2801477
555387
2801477
2801477
948071
948071
2759732
1084719
754041
948071
2801477
555387
2053653
2053653
753084
1026955
2686251
2801477
1392231
2801477
555387
555387
445688
909297
948071
555387
948071
909297
753084
908819
2801477
2801477
555387
555387
948071
754042
909297
948071
948071
1586715
2686251
948071
948071
948071
948071
2686251
555387
756275
238854
555387
2053653
1536592
555387
555387
251749
948071
948071
948071
555387
948071
238854
2027899
948071
754041
2052742
948071
2741074
1026955
2801477
2801477
555387
2801477
555387
2686251
948071
948071
555387
756275
555387
1327982
555387
251749
1029988
2801477
948071
2801477
948071
948071
2801477
948071
2024264
2801477
1493511
948071
1536592
948071
2801477
909297
2053653
244310
555387
1168478
948071
948071
455364
1127518
754041
908819
948071
1472912
754041
2801477
948071
948071
756275
909297
754041
2801477
555387
948071
445688
2053653
555387
555387
1325731
2545435
756275
753084
948071
2052742
1557033
948071
948071
948071
948071
2801477
948071
756275
948071
2053653
948071
2801477
753084
2801477
1542477
948071
754041
889951
948071
2801477
754042
251749
2801477
754067
753084
2801477
948071
2283025
948071
948071
948071
555387
909297
238854
2801477
2026102
2053653
756275
948071
2801477
948071
555387
280701
2053653
754041
2053653
889951
948071
909297
555387
2686242
948071
445688
948071
1084719
948071
948071
50948
2801477
909297
948071
2510464
1567014
244310
948071
446529
948071
948071
948071
948071
909297
756275
1127518
948071
2801477
948071
445688
948071
948071
244310
555387
555387
1141136
948071
2801477
455364
909297
948071
2801477
948071
2023996
194699
2053653
555387
948071
948071
2053653
909297
2801477
251749
251749
948071
948071
2010329
948071
244310
2686242
948071
948071
948071
555387
2801477
948071
908819
754041
948071
1536592
264729
1026955
455364
2801477
2801477
555387
948071
322019
889951
948071
1137745
909297
948071
948071
2283270
2801477
948071
455364
555387
555387
1327983
1536592
948071
908819
2801477
2801477
2024264
445688
889951
1917232
2801477
948071
756275
2801477
2801477
948071
948071
2010329
555387
555387
2079426
948071
948071
555387
948071
555387
1127518
756275
1137745
754059
948071
756275
1137745
948071
756275
455364
2053653
2010329
909297
445692
1586715
2801477
2510464
1557033
909297
2053653
455364
909297
1586714
10689
2041344
756275
1536592
1917232
756275
2801477
2053653
455364
455364
2801477
1137745
2759393
2801477
909297
1586714
2686250
948071
2053653
696472
2491321
455364
2053653
756275
889953
445688
1329402
909297
444860
2801477
2053653
455364
455364
455364
2053653
455364
909297
909297
2801477
251749
2801477
1536592
909297
2759393
455364
753085
1137745
889953
1051675
1084719
756275
455364
2801477
2484217
251749
2686251
2801477
590739
756275
948071
889953
756275
1137745
1880590
445688
1557033
2801477
889951
753084
2801477
756275
1880590
889951
2801477
455364
909297
1536592
446529
2740801
1137745
756276
616674
1586713
1962671
1567014
455364
754059
2801477
455364
444860
889951
1883366
948071
2801477
2801477
1983784
455364
889951
1141136
889951
1168478
2772511
889951
1586713
294631
889951
2024264
2301561
889951
889951
1880590
754042
2053653
756275
1150991
1586715
889951
2052742
2740802
1586715
446529
1283076
2099637
1883368
251749
889951
455364
445688
2801477
909297
2801477
756275
194699
2053653
2053653
1328030
2801477
2053653
2801477
1880590
1557035
455364
2801477
445686
455364
2801477
889951
2053653
455364
1327037
1357423
2801477
756275
446529
1542477
1278479
1586715
2801477
756275
889951
227720
756275
455364
1079998
948071
2740801
455364
2759393
2053653
889951
1357423
2500816
1150991
889951
869724
909297
2041344
455364
1586715
2801477
455364
889951
754041
756275
2079426
2759393
2024264
1493514
2053653
2053653
2801477
909297
251749
948071
1880590
1958919
2053653
2801477
455364
754041
2801477
889951
455364
151539
948071
756275
753085
445688
1137745
889951
469660
445688
1137745
696472
2686251
1493511
754037
2053653
948071
2053653
1033977
756276
2801477
2053653
1586715
948071
446529
1917232
2010329
2053653
756275
1335230
2053653
1033977
1084719
251749
455364
756275
756275
756275
66797
2491321
1590550
756275
753085
2053653
1127518
2053653
1880590
1917232
455364
2801477
455364
754042
756275
1137745
756275
756275
948071
2048977
1917232
1168478
251749
2801477
2053653
1137745
446529
1590550
2053653
754042
455364
1883368
2510464
2801477
2772511
1590550
756275
238854
205869
1486473
455364
908819
1917232
2053653
555387
1137745
2759393
1033977
1141136
445686
2812854
2686250
754042
576790
1536592
2053653
753085
756275
1137745
1137745
756275
948071
2053653
756275
455364
455364
455364
948071
2107709
754042
2801477
909297
754042
2801477
756275
455364
2801477
754042
1391659
756275
1033977
2801477
2801477
889953
2759727
444860
756275
2053653
446529
869724
1084719
461711
756275
455364
445700
2010329
2686245
455364
948071
2053653
2053653
455364
948071
754041
1278479
1283076
1586715
1283076
1084719
1880590
756275
444875
2500166
2182349
2099637
756275
1555202
948071
2079134
1557035
754042
1283076
2801477
2686245
2801477
908819
1283076
2053653
446529
2026080
455364
2010329
756275
1283076
756275
2053653
1084719
1084719
2801477
2801477
455364
2053653
2740801
1283076
2053653
1283076
2024264
756275
1029988
1586715
756275
2801477
1204543
455364
455364
948870
2686245
2053653
1493511
205879
756275
1586715
1283076
238854
1557033
2053653
756275
889953
2801477
2053653
2723758
446529
1557035
2686245
279383
756275
642926
948071
1586715
2491321
2510464
251749
889953
1838078
1283076
2053653
455364
1084719
2801477
2801477
2801477
753084
251749
205869
242527
2801477
1327935
446529
1586715
455364
445688
756275
445688
242527
2740801
1392231
444876
2301529
455364
2053653
445688
446529
2301529
756275
2053653
455364
908819
2740802
251749
446529
2801477
2053653
251749
1536592
909297
445685
948071
756275
445688
2601643
2053653
445688
753085
446529
754042
2053653
908819
455364
1536592
909297
445688
2716351
2801477
10506
445688
1493514
948071
948071
2053653
948071
2510464
2023996
1880590
2801477
455364
1815522
756275
1493514
2801477
2268578
753084
455364
753085
2301529
445688
909297
909297
909297
1084719
753084
238854
756275
754042
1536592
169683
445688
446529
754041
948071
1357715
2053653
1536592
756275
2053653
2024264
1084719
2801477
756275
754042
908819
754038
948071
445688
2053653
2740801
2053653
909297
2053653
445688
754042
2268578
2801477
590739
445688
2053653
2024264
28874
756275
445688
455364
2678601
1052673
1567014
446529
889951
251749
756275
756275
1586715
445688
445688
2053653
1542477
2023996
908819
1161935
2591403
1161935
445688
49964
756275
1137745
445688
754059
1332145
2023996
2053653
909297
2024264
446529
2024264
2801477
2555548
1536592
169683
251749
1586715
1493511
2801477
205879
455364
1536592
455364
1195085
2801477
251749
169683
2283026
2053653
2053653
1137745
908819
2053653
2301528
2601680
1917232
1084719
756275
1917232
756275
1486473
446529
1392231
2041344
455364
909297
446529
1493511
455364
754042
1486473
756275
1137745
1486473
455364
169683
2759730
756275
2686245
889953
754042
251749
756275
169683
2686242
756275
2740804
1084719
754067
238854
455364
444860
169683
169683
2053653
889953
2053653
1084719
169683
756275
2053653
169683
455364
2024264
2053653
169683
244310
756275
169683
1137745
2562175
753085
909297
754042
1273711
455364
756275
753085
2053653
2593360
1273711
756275
2593360
251749
2023996
754042
251749
753084
1283077
268748
2024264
251749
455364
2601643
2801477
2801477
756275
169683
169683
2723758
984175
1586713
2053653
455364
2801477
205869
948870
756275
2053653
1883365
948071
2801477
2801477
455364
1586715
2041207
2801477
251749
2801477
251749
322019
2053653
2772511
455364
889953
1969841
1283076
455364
2053653
756275
251749
1283077
2510464
455364
294631
251749
1335230
756275
251749
2100130
754042
948071
536474
445688
948071
909297
2053653
2024264
889953
455364
455364
1474867
1557033
753084
445688
1536592
181082
455364
2801477
2801477
2053653
1283076
1557034
1137745
455364
1357423
2686246
1557034
2053653
1557033
2053653
908819
455364
2041344
251749
1137745
2801477
1168478
1586715
2053653
2053653
2801477
1536592
1883365
444860
756275
1586715
455364
2686246
2801477
754042
1814284
205869
948071
909297
2686245
1880590
2686251
1586715
251749
2041344
1965368
1332145
908819
445688
889951
754042
948071
446529
251749
948071
2053653
2053653
1084719
1474867
444875
756275
1147158
756275
2053653
2023996
2182408
1586714
382262
455364
251749
1557033
1084719
2053653
754042
2053653
205879
455364
2716351
754042
754042
1586715
948071
2801477
2801477
169683
455364
1916124
2023996
1586714
446529
2053653
1917232
754042
2024264
1198013
455364
754042
754042
455364
754042
251749
2510464
2023996
1141136
2041344
455364
754042
756275
1493511
948071
194699
382262
2491321
455364
909297
2301528
1586714
1084719
455364
382262
2052742
455364
1555202
2024264
948870
1883371
756275
251749
756275
565140
1586715
2545435
2801477
754042
948071
455364
754041
445686
754041
1880590
1586714
754067
1137745
909297
445700
194699
1567014
251749
2023996
446529
1335230
279280
1883369
644524
455364
889953
1283076
754042
1880590
279383
754042
455364
2801477
2545435
382262
1137745
455364
445685
2801477
2024264
1969841
908819
2686266
754042
455364
455364
754067
754042
455364
1814283
756275
2053653
753085
455364
756275
1301279
455364
754042
2023996
2023996
2686251
1137745
455364
66711
2723758
1873891
1133292
880161
279383
2023996
455364
756275
2053653
1137745
2053653
1084719
2023996
754042
644524
754041
2053653
2023996
889953
1084719
2010329
2053653
2686251
2801477
2759730
948071
948071
1883368
754042
2740801
1536592
445688
445688
687803
455364
2099637
1137745
2801477
2716351
455364
445688
756275
687803
756275
1557033
1137745
445688
445688
687803
551790
909297
1557033
1472912
2053653
455364
2801477
687803
2801477
908819
251749
1493514
2686266
2053653
2052742
979533
2801477
687803
2099637
1557033
687803
2053653
445688
445688
753085
1493511
2053653
756275
2053653
948071
2053653
2743781
1327983
2812854
2759393
445688
756275
2041344
1586715
238854
910474
455364
1033977
756275
294631
445688
445688
445688
756275
687803
756275
445688
948071
445688
445688
2053653
445688
446529
753085
909297
445688
756275
756275
1557033
756275
658401
268746
1283077
438482
2801477
756275
2801477
445688
227720
445688
445700
2100130
687803
1557033
756275
438482
2801477
889951
2500816
2182319
2301538
756275
909297
2053653
2053653
753085
753085
2716351
1137745
1814284
1472912
445688
753084
279383
2686242
1880590
2023996
1586713
1586713
2052742
455364
455364
2801477
445686
1969841
1472912
2686245
754059
2053653
238854
445686
1586713
227720
753085
1141136
238854
455364
2801477
756275
455364
908819
1033977
1792273
909297
1084719
455364
1392231
1887641
2053653
255131
2041344
2686245
908819
754042
948071
909297
2053653
753085
2740801
1917232
889954
2686247
251749
2024264
756275
2099637
1586713
1526550
1883365
445686
889953
1586713
2268578
756275
2801477
2053653
1883369
2053653
2053653
251749
444860
2801477
2053653
2041344
756275
2510464
889951
2801477
753085
1283078
2801477
1084719
1917232
1586715
2801477
754059
2740801
194699
1168478
1141136
251749
754042
2053653
455364
2716351
2801477
754059
2686245
2053653
212035
2801477
1917232
1084719
754059
753084
455364
754059
753084
2565696
756276
2801477
909297
756275
2801477
754042
2686246
2772511
1536592
445686
2801477
251749
756275
455364
1141136
948071
1536592
693272
2801477
251749
251749
2053653
1880590
2801477
2510464
1278479
1557033
2510464
909297
1880590
756275
1586713
948071
754042
2053653
909297
1137745
2801477
1137745
2801477
754042
28874
1308863
2565696
2801477
2053653
756276
948071
1137745
1557034
756276
948071
455364
948071
948071
754042
948071
756275
455364
2801477
1327983
1557033
909297
1137745
2743801
455364
1586715
756276
2801477
1880590
2801477
455364
1880590
2053653
2024264
2053653
455364
2772511
889953
948071
909297
139871
1137745
2024264
2510464
1557033
948071
445688
2041344
2565696
1934252
693272
948071
2053653
948071
322019
455364
1917232
251749
756275
909297
948071
1969841
2801477
244310
2801477
756275
948071
455364
455364
268746
176652
2053653
2565696
1137745
2510464
455364
2801477
268746
2801477
455364
2491321
2801477
2686251
880161
756275
1084719
1084719
756275
908819
756275
251749
756275
446529
1084719
2041344
2678601
2053653
2772511
1880590
2801477
756275
1141136
1137745
1586715
2801477
251749
2053653
2053653
909297
1536592
322019
889953
2686251
2024264
756275
908819
756275
2590946
1536592
1586715
756275
754067
1555202
1555202
2053653
2801477
205879
1536592
1269028
753085
2801477
756275
455364
2686251
909297
268746
1880590
1137745
1536592
1269028
2686245
753085
169683
2801477
1392231
169683
169683
455364
663557
169683
445688
948071
889953
948071
2010329
169683
756275
1327982
869724
2686250
929832
555387
2026080
756275
169683
445688
756275
1168281
2591403
2686266
754041
948071
444859
948071
1141136
2024264
445688
1880590
2743781
455364
536444
948870
948071
169683
948071
446529
169683
169683
2053653
536453
908819
1283076
251749
251749
948071
909297
169683
169683
909297
445686
455364
1965368
1586714
2686245
948071
169683
1536592
948071
948071
1917232
169683
2686251
948071
169683
1883365
2491321
1340810
2015804
169683
455364
169683
948071
1555202
169683
1880590
1542477
1204534
889953
1084719
2653725
455364
1325731
2801477
948071
169683
2801477
948071
754042
455364
1586714
251749
445688
948071
2340716
753085
2801477
169683
455364
455364
2740801
169683
2053653
1883369
908819
455364
2491321
1391659
2053653
169683
169683
1168281
169683
455364
169683
948071
322019
2801477
169683
2053653
28874
2053653
445700
2801477
1137745
948071
1897437
169683
754059
948071
169683
1542477
948071
754067
1557033
455364
1542477
909297
1880590
169683
169683
446529
2591403
169683
1137745
2801477
693272
754041
169683
169683
169683
908819
455364
251749
169683
2283025
1536592
754041
251749
444860
948071
1493511
889953
169683
242527
455364
169683
1542477
169683
2484217
756275
2053653
1542477
2024264
1278479
169683
2053653
2491321
169683
1557033
2510464
1965368
2812854
948071
1392231
169683
754041
1821560
1586715
445688
2686266
445688
2510464
455364
909297
455364
754042
2053653
455364
445688
908819
455364
2053653
2801477
2053653
1883369
169683
169683
446529
2100130
455364
2801477
1472912
2801477
2053653
1852629
169683
169683
169683
2759393
1026955
455364
756275
169683
2023996
948071
169683
2686245
169683
948071
2591403
1557033
2024264
169683
455364
1838137
2053653
2023996
251749
169683
2801477
169683
2801477
46021
2740801
756275
948071
1586714
445688
169683
455364
169683
169683
2801477
169683
948071
1965368
2801477
754042
169683
1542477
1557033
169683
2740801
444860
753084
169683
1450142
455364
948071
2801477
2024264
2801477
756275
2053653
445685
2053653
1586715
455364
2053653
1880590
909297
1197951
2801477
455364
268747
445688
268747
268747
889953
2510464
1536592
251749
1084719
1392231
908819
756275
2053653
1084719
445688
756275
756275
1844477
455364
909297
2772511
753084
908819
2023996
455364
2107709
754042
2510464
244310
445688
455364
268747
756275
2801477
889953
889951
756275
2801477
756275
1493511
1168478
756275
1557033
455364
251749
2801477
244310
455364
445688
2041344
2510464
1536592
1557033
2053653
2801477
2024264
268746
445688
1557033
1327934
399781
455364
251749
754067
1573458
46242
455364
1029988
1141136
251749
756275
1557033
1141136
2041344
1029988
2053653
756275
1814282
2491321
244310
1084719
251749
1197951
2801477
2545435
2801477
889953
1335230
756275
268747
2053653
2686246
268747
194699
1084719
2041344
2491321
1536592
1329402
97195
2010329
1883365
1917232
756276
889951
948071
1137745
753085
1033977
1486472
2801477
2010329
2801477
948071
2801477
2801477
444876
753085
2801477
2801477
2510464
1586715
2024264
227720
2053653
455364
889953
2053653
1026955
753085
1137745
1392231
1557035
2010329
1548912
2772511
2675257
948071
1141136
455364
251749
756275
1137745
1557035
2024264
2053653
756275
251749
756275
1137745
1137745
2053653
455364
1880590
2053653
756275
909297
753085
756275
1278479
2801477
251749
1555202
251749
1137745
2041344
753085
2590946
2801477
2053653
445688
2041344
264729
1880590
2686245
279383
2023996
251749
756275
948071
1137745
445692
2053653
2053653
753085
455364
1880590
756276
948071
753085
2029657
444860
2740804
445688
909297
2053653
889954
754041
444860
2053653
753085
251749
455364
948071
756275
2801477
1493511
2053653
2023996
455364
1161935
2686245
251749
2801477
756275
1917232
2053653
2686245
754067
642926
753085
382273
438482
2024264
642926
756275
242527
1586715
1141136
2801477
455364
756275
2801477
754067
2053653
1589751
1052673
238854
2053653
2801477
2041344
756275
455364
756275
2801477
455364
1883377
2801477
1557034
2801477
2801477
1880590
2801477
2801477
2041344
2053653
2025360
2041344
2686251
909297
455364
2026102
2801477
1958956
169683
754042
1917232
2801477
455364
455364
2053653
446529
1917232
948071
455364
2053653
455364
2053653
238854
2801477
2801477
455364
446529
455364
2723758
909297
2590946
2024264
49964
756275
909297
2023996
1852629
2010329
754067
1332145
455364
749413
909297
455364
2510464
753085
1883365
2023996
880162
1883368
909297
169683
2686245
136084
169683
455364
756275
1852629
1536592
754042
756275
1917232
642926
2099637
1880590
445688
2801477
2023996
455364
2023996
1141136
889951
169683
909297
909297
1573458
753085
753085
756275
1917232
2801477
889953
2686245
889953
2801477
756275
1137745
2010329
2010329
1586714
169683
565140
2053653
2801477
1269028
2024264
2024264
251749
1327037
2024264
1493511
2801477
756275
753085
642926
2053653
455364
1814284
754038
754042
1586714
756275
889953
756275
756282
2053653
251749
2801477
251749
2801477
2024264
1555202
1133293
2772511
251749
455364
754041
455364
2801477
2053653
2801477
2010329
2024264
455364
1357714
445688
948071
455364
205869
948071
1586714
2053653
909297
2801477
756275
909297
756275
1557033
2591129
2801477
2801477
2801477
251749
753085
2801477
251749
244310
754042
1029988
756275
2053653
948071
2801477
2010329
909297
2053653
445688
2510464
909297
756275
909297
2801477
268746
1084719
948071
889953
1962671
753084
909297
455364
205869
1917232
251749
446529
1137745
756275
573174
756275
2053653
909297
445688
756275
756276
2801477
2053653
2301529
455364
445692
909297
455364
2801477
251749
455364
753085
2053653
753085
909297
2801477
2053653
1815521
75320
909297
455364
2801477
455364
455364
455364
2801477
2053653
445688
2201441
1141136
2053653
2053653
756275
908819
753085
1168549
756275
445688
909297
2801477
909297
2801477
251749
2801477
1586714
2053653
2010329
251749
2801477
909297
1586714
756275
756275
1536592
455364
2053653
455364
1586715
455364
2812854
2801477
2510464
445688
251749
268746
756275
2801477
2801477
1586714
908819
2053653
2024264
908819
251749
756275
908819
2053653
1880590
1883365
754059
1586713
754067
756275
2053653
2686251
2801477
2801477
445688
753085
756276
2024264
2053653
445688
2053653
1536592
2801477
2743801
1137745
754042
455364
756275
756275
1586713
1555202
2801477
1137745
2053653
908819
1137745
322019
1880590
1586715
2801477
756275
1131315
909297
756276
2801477
455364
2801477
1557034
756275
2053653
2801477
754041
756275
2053653
1084719
2041344
268747
984175
756275
1137745
2053653
756276
908819
445688
2801477
455364
455364
756275
753085
2053653
2053653
2010329
445688
2053653
908819
455364
2053653
2023996
2053653
455364
2053653
2053653
1137745
268746
2801477
496874
2053653
1084719
2801477
756276
2053653
2053653
49964
754042
1555202
1493511
1880590
1557033
1026955
2686251
1329402
909297
756275
455364
2023996
756275
455364
1557034
1536592
455364
756275
753085
1586715
909297
1586715
1880590
2716351
1391659
2024264
984175
2562175
908819
1449437
1586715
2053653
1883368
1555202
1084719
753085
1137745
2801477
455364
754059
1555202
2053653
445686
2010329
251749
2562175
2686245
756275
756277
251749
2053653
2010329
1536592
1051675
908819
756275
1332145
1883377
1586715
2562175
1815522
1332145
1586715
455364
1536592
909297
455364
908819
756275
756275
1555202
455364
2801477
2024264
1913038
455364
1026955
294631
2053653
908819
1137745
753085
2053653
1296661
2801477
754042
909297
455364
1917232
1026955
1586714
756275
455364
2801477
455364
238854
2801477
1555202
909297
1036616
455364
445700
1883365
251749
756275
251749
753085
756275
754059
445688
251749
455364
1079998
2053653
2716351
1536592
1586713
1137745
215158
948071
455364
2053653
948071
2686247
2686245
2686251
948071
455364
948071
948071
455364
753085
2686246
2053653
1536592
238854
2053653
948071
1332145
909297
455364
2510464
188350
754042
2010329
948071
1493511
1557035
754041
2053653
1137745
753085
1557033
112023
169683
2024264
445688
1815521
2510464
455364
2801477
194699
455364
948071
1536592
1327983
908819
753084
1555202
2053653
2107707
1586713
1880590
2052742
194699
948071
2041344
2079134
756275
948071
455364
1392231
753084
2593360
948071
756275
1332145
948071
455364
1137745
1391659
948071
908819
1880590
2023996
455364
455364
756275
1141136
1137745
1880590
2510464
1229757
446529
756275
244310
948071
1472912
908819
909297
2801477
2053653
445684
444860
2801477
2801477
455364
2743781
948071
1137745
2053653
756275
948071
2010329
2801477
1536592
754042
1557033
756275
455364
455364
1880590
2686246
1567014
2590946
1555202
754067
754042
2024264
754038
1527512
445683
948071
756275
1392231
2024264
2801477
754042
455364
1880590
2024264
188350
2107707
455364
2053653
1586713
2510464
1536592
2053653
1557033
1127518
455364
756275
1883370
2801477
2053653
1026955
335797
455364
948071
455364
2053653
909297
2023996
1391659
1283077
1283077
242527
573174
1079998
1557034
2801477
1327939
2041344
2053653
1335230
756275
445688
889951
445688
909297
469660
2099338
756275
1932881
2053653
251749
2041344
1586714
446529
889951
445688
445688
445688
445688
1567014
455364
445688
279383
444860
889951
1493510
445686
1137745
1137745
2759393
889953
2053653
2510464
2053653
753084
2053653
1325731
909297
909297
455364
455364
2801477
445685
573174
1269028
1536592
2801477
573174
756275
380598
1540098
573174
756275
2053653
756275
2686270
756275
2801477
2801477
2053653
1586714
756276
445688
2053653
2510464
2772511
2024264
756275
1880590
445688
2053653
573174
1137745
455364
444875
445688
2024264
242527
1880590
2024264
2053653
2053653
455364
2053653
2024264
889951
445688
1129145
2041344
455364
1917232
889951
445688
756275
2023996
194699
194699
251749
1962671
445688
1137745
251749
445688
756275
573174
573174
2801477
1586713
1084719
2801477
753084
2010329
1392231
251749
2801477
1880590
1141136
2053653
1141136
2716351
948071
2801477
948071
2801477
2801477
2740801
2053653
1325731
2301529
754042
909297
455364
948870
2801477
1325731
1137745
251749
455364
2801477
948870
2801477
1325731
445688
268746
1327972
754042
948870
251749
455364
2801477
1141137
455364
2801477
2301529
1168479
2510464
755272
2801477
2041344
756275
455364
1278479
2801477
455364
244310
753084
756275
2053653
2801477
2593333
2801477
756275
1873698
756275
756276
2801477
244310
908819
2024264
2801477
2743801
2301529
1278479
455364
1327972
756275
2801477
2801477
251749
2024264
2053653
2801477
1141136
2024264
455364
2024264
756275
2041344
2053653
2801477
2079426
2053653
756275
2079134
1137745
2801477
948071
2010329
663557
2801477
1472912
2801477
2801477
2801477
756275
2023996
1325731
1327972
2801477
1536592
756275
1573458
2801477
669875
693272
2801477
455364
251749
1880590
2053653
756275
753084
754042
2053653
354260
1357423
2052742
455364
2010329
2801477
2740801
445688
2801477
2053653
2010329
889953
2041344
2801477
1325731
455364
1325731
2801477
2801477
446529
1327972
251749
753084
756275
1325731
756275
2801477
756275
2743781
2010329
1586713
445688
1084719
1557033
1880590
948870
756275
2593333
1586714
753085
1327935
889951
2801477
2801477
1586714
756275
908819
908819
2801477
2741077
244310
251749
1586713
2048977
948071
2024264
2743801
753084
455364
756275
2027899
948071
1137745
869662
455364
1137745
753084
1536592
1042123
909297
1586713
1127518
455364
693272
869662
2024264
455364
251749
756275
455364
455364
455364
1536592
2801477
2100130
2053653
948071
909297
2053653
1127518
2772511
909297
756275
2801477
2053653
2053653
2801477
2510464
756275
880162
909297
2801477
399781
1586714
455364
909297
2801477
536444
1273711
455364
754042
948071
2801477
2801477
2099637
909297
1536592
756275
251749
753084
880162
2801477
1147094
1493511
1127518
2053653
756275
2053653
2723758
756275
756275
2024264
869662
1586713
251749
455364
1536592
948071
251749
1573458
1917232
2053653
1913035
455364
2686251
756275
238854
1555202
205869
756275
909297
382359
1137745
455364
268746
756275
2053653
1141136
948071
244310
756275
455364
753084
909297
1586714
455364
1530085
2053653
1557033
455364
756275
754042
756275
948071
889954
909297
2801477
756276
2053653
756275
151528
399781
1136535
1555202
948071
2053653
2053653
2588131
2024264
455364
1084719
2053653
455364
2801477
251749
756275
2024264
754041
754041
1503929
10678
754041
1278402
948071
251749
753085
2053653
1141136
756275
455364
1917232
455364
399781
38804
880161
754041
455364
455364
1084719
1493511
1586713
251749
38804
251749
948071
455364
151539
616674
756275
194699
2510464
948071
1137745
756275
2053653
455364
2053653
455364
1586713
2041344
251749
455364
756275
251749
446529
754042
445686
754041
251749
2301529
2010329
2801477
1357714
251749
948071
1557035
1586715
455364
1536592
2743801
1557033
756275
2801477
455364
455364
754041
754041
756275
251749
2053653
754041
455364
1392231
455364
1542477
1880590
756275
948071
455364
2053653
754041
455364
2025359
2026080
909297
753085
753085
2801477
2801477
1141136
2053653
754042
2053653
756275
1474867
1079998
455364
2053653
455364
455364
455364
2759720
10704
1536592
754041
1567012
1917232
455364
2010329
1141136
754041
1327990
753085
2801477
909297
2041344
1880590
2024264
2801477
754041
2716351
909297
756275
1084719
880162
1897532
1880590
1880590
2041344
1536592
2010329
244310
455364
2053653
455364
1486424
1536592
909297
2740801
1474867
1493511
114777
455364
2801477
455364
1555202
2740801
1917232
753085
2024264
756275
754041
2024264
754042
551790
1147094
2801477
2023996
1536592
444862
948870
2099637
2801477
1880590
251749
756275
2491321
444860
909297
2024264
2801477
2053653
1137745
2024264
2024264
2759732
1573458
2024264
1586713
756275
2024264
2010329
2491321
455364
2053653
2053653
